#Digilent WaveForms Oscilloscope Acquisition
#Device Name: EExplorer
#Serial Number: SN:210151262793
#Date Time: 2020-04-24 20:17:46.501
#Sample rate: 2000Hz
#Samples: 60000
#Trigger: Source: EKG Board Output Type: Edge Condition: Rising Level: 500 mV Hyst.: Auto HoldOff: 0 s
#EKG Board Output: Range: 50 mV/div Offset: -688 mV Attenuation: 1 X
#Wavegen Channel 1: Disabled
#Mode: Simple
#Type: Sine
#Frequency: 5 Hz
#Period: 200 ms
#Amplitude: 10 mV
#Offset: 130 mV
#Symmetry: 50 %
#Phase: 0 °
#Wavegen Channel 2: Disabled
#Mode: Simple
#Type: Sine
#Frequency: 5 Hz
#Period: 200 ms
#Amplitude: 10 mV
#Offset: 15 mV
#Symmetry: 50 %
#Phase: 180 °
#Power Supplies: ON
#Fixed Supply: OFF
#Voltage: 3.3 V
#Positive Supply: ON
#Voltage: 4 V Readback: 3.998 V
#Current: 500 mA Readback: 16 mA
#Negative Supply: OFF
#Voltage: -2 V
#Current: -500 mA
#Reference 1: OFF
#Voltage: 0 V
#Reference 2: OFF
#Voltage: 0 V

#Gathering EKG Data
#2020/04/24
#EKG-1.0
#Filename indicates configuration
#30 second recording, 2kHz sample rate, 60k samples
#Time (s),EKG Board Output (V)
-15,0.8337669770060638
-14.9995,0.8047237280617782
-14.999,0.8321970716577241
-14.9985,0.8306271663093843
-14.998,0.8298422136352144
-14.9975,0.8290572609610445
-14.997,0.8290572609610445
-14.9965,0.8274873556127047
-14.996,0.5307752447764891
-14.9955,0.4805382736296165
-14.995,0.4821081789779563
-14.9945,0.4789683682812768
-14.994,0.4766135102587672
-14.9935,0.5959263167325893
-14.993,0.8329820243318939
-14.9925,0.8337669770060638
-14.992,0.8321970716577241
-14.9915,0.8314121189835542
-14.991,0.8298422136352144
-14.9905,0.8306271663093843
-14.99,0.8290572609610445
-14.9895,0.8274873556127047
-14.989,0.8274873556127047
-14.9885,0.8259174502643649
-14.988,0.825132497590195
-14.9875,0.8243475449160251
-14.987,0.6712817734528981
-14.9865,0.4460003559661417
-14.986,0.4475702613144815
-14.9855,0.4499251193369911
-14.985,0.450710072011161
-14.9845,0.4499251193369911
-14.984,0.4436454979436321
-14.9835,0.7576265676115852
-14.983,0.8047237280617782
-14.9825,0.8314121189835542
-14.982,0.8314121189835542
-14.9815,0.8298422136352144
-14.981,0.8290572609610445
-14.9805,0.8282723082868746
-14.98,0.8274873556127047
-14.9795,0.6524429092728209
-14.979,0.4789683682812768
-14.9785,0.4805382736296165
-14.978,0.4789683682812768
-14.9775,0.4758285575845973
-14.977,0.4773984629329371
-14.9765,0.8329820243318939
-14.976,0.8329820243318939
-14.9755,0.8329820243318939
-14.975,0.8306271663093843
-14.9745,0.8298422136352144
-14.974,0.8298422136352144
-14.9735,0.8290572609610445
-14.973,0.8274873556127047
-14.9725,0.8274873556127047
-14.972,0.8259174502643649
-14.9715,0.825132497590195
-14.971,0.8243475449160251
-14.9705,0.7968742013200794
-14.97,0.4491401666628213
-14.9695,0.4452154032919718
-14.969,0.4467853086403116
-14.9685,0.4483552139886514
-14.968,0.4491401666628213
-14.9675,0.444430450617802
-14.967,0.6194748969576858
-14.9665,0.8321970716577241
-14.966,0.8070785860842877
-14.9655,0.8306271663093843
-14.965,0.8298422136352144
-14.9645,0.8282723082868746
-14.964,0.8282723082868746
-14.9635,0.8282723082868746
-14.963,0.7662610470274539
-14.9625,0.4750436049104274
-14.962,0.4789683682812768
-14.9615,0.4773984629329371
-14.961,0.4766135102587672
-14.9605,0.4726887468879177
-14.96,0.7160240758805814
-14.9595,0.8337669770060638
-14.959,0.8337669770060638
-14.9585,0.8314121189835542
-14.958,0.8298422136352144
-14.9575,0.8298422136352144
-14.957,0.8290572609610445
-14.9565,0.8282723082868746
-14.956,0.8282723082868746
-14.9555,0.8267024029385348
-14.955,0.8259174502643649
-14.9545,0.8243475449160251
-14.954,0.8243475449160251
-14.9535,0.5488291562823964
-14.953,0.4436454979436321
-14.9525,0.4452154032919718
-14.952,0.4460003559661417
-14.9515,0.4483552139886514
-14.951,0.4452154032919718
-14.9505,0.4923125637421648
-14.95,0.8329820243318939
-14.9495,0.8031538227134384
-14.949,0.8314121189835542
-14.9485,0.8306271663093843
-14.948,0.8298422136352144
-14.9475,0.8290572609610445
-14.947,0.8282723082868746
-14.9465,0.8274873556127047
-14.946,0.5307752447764891
-14.9455,0.4758285575845973
-14.945,0.4766135102587672
-14.9445,0.4750436049104274
-14.944,0.4726887468879177
-14.9435,0.5920015533617399
-14.943,0.8329820243318939
-14.9425,0.8321970716577241
-14.942,0.8306271663093843
-14.9415,0.8314121189835542
-14.941,0.8298422136352144
-14.9405,0.8290572609610445
-14.94,0.8282723082868746
-14.9395,0.8282723082868746
-14.939,0.8259174502643649
-14.9385,0.8259174502643649
-14.938,0.8243475449160251
-14.9375,0.8235625922418554
-14.937,0.6752065368237475
-14.9365,0.4397207345727827
-14.936,0.4428605452694622
-14.9355,0.4428605452694622
-14.935,0.4460003559661417
-14.9345,0.444430450617802
-14.934,0.4389357818986128
-14.9335,0.7529168515665658
-14.933,0.8078635387584576
-14.9325,0.8321970716577241
-14.932,0.8306271663093843
-14.9315,0.8298422136352144
-14.931,0.8298422136352144
-14.9305,0.8282723082868746
-14.93,0.8267024029385348
-14.9295,0.6547977672953306
-14.929,0.4734736995620876
-14.9285,0.4750436049104274
-14.928,0.4742586522362575
-14.9275,0.4719037942137478
-14.927,0.4695489361912382
-14.9265,0.8267024029385348
-14.926,0.8329820243318939
-14.9255,0.8329820243318939
-14.925,0.8306271663093843
-14.9245,0.8306271663093843
-14.924,0.8290572609610445
-14.9235,0.8282723082868746
-14.923,0.8274873556127047
-14.9225,0.8274873556127047
-14.922,0.8259174502643649
-14.9215,0.8259174502643649
-14.921,0.8243475449160251
-14.9205,0.7968742013200794
-14.92,0.4460003559661417
-14.9195,0.4405056872469525
-14.919,0.4420755925952923
-14.9185,0.4436454979436321
-14.918,0.444430450617802
-14.9175,0.4389357818986128
-14.917,0.6281093763735546
-14.9165,0.8329820243318939
-14.916,0.8031538227134384
-14.9155,0.8306271663093843
-14.915,0.8298422136352144
-14.9145,0.8298422136352144
-14.914,0.8282723082868746
-14.9135,0.8274873556127047
-14.913,0.7686159050499635
-14.9125,0.4711188415395779
-14.912,0.4750436049104274
-14.9115,0.4734736995620876
-14.911,0.4711188415395779
-14.9105,0.4687639835170683
-14.91,0.7058196911163729
-14.9095,0.8337669770060638
-14.909,0.8314121189835542
-14.9085,0.8321970716577241
-14.908,0.8314121189835542
-14.9075,0.8298422136352144
-14.907,0.8290572609610445
-14.9065,0.8282723082868746
-14.906,0.8282723082868746
-14.9055,0.8267024029385348
-14.905,0.8259174502643649
-14.9045,0.825132497590195
-14.904,0.8243475449160251
-14.9035,0.5449043929115469
-14.903,0.4397207345727827
-14.9025,0.4420755925952923
-14.902,0.4428605452694622
-14.9015,0.4452154032919718
-14.901,0.4412906399211224
-14.9005,0.4891727530454853
-14.9,0.8329820243318939
-14.8995,0.8039387753876083
-14.899,0.8314121189835542
-14.8985,0.8306271663093843
-14.898,0.8298422136352144
-14.8975,0.8290572609610445
-14.897,0.8282723082868746
-14.8965,0.8274873556127047
-14.896,0.5331301027989988
-14.8955,0.4719037942137478
-14.895,0.4734736995620876
-14.8945,0.4711188415395779
-14.894,0.4687639835170683
-14.8935,0.5865068846425507
-14.893,0.8337669770060638
-14.8925,0.8321970716577241
-14.892,0.8321970716577241
-14.8915,0.8314121189835542
-14.891,0.8306271663093843
-14.8905,0.8298422136352144
-14.89,0.8282723082868746
-14.8895,0.8274873556127047
-14.889,0.8274873556127047
-14.8885,0.8259174502643649
-14.888,0.825132497590195
-14.8875,0.8243475449160251
-14.887,0.6775613948462571
-14.8865,0.437365876550273
-14.886,0.4381508292244429
-14.8855,0.4405056872469525
-14.885,0.4412906399211224
-14.8845,0.4412906399211224
-14.884,0.4357959712019333
-14.8835,0.7544867569149056
-14.883,0.8007989646909287
-14.8825,0.8314121189835542
-14.882,0.8321970716577241
-14.8815,0.8298422136352144
-14.881,0.8298422136352144
-14.8805,0.8290572609610445
-14.88,0.8282723082868746
-14.8795,0.6500880512503112
-14.879,0.4695489361912382
-14.8785,0.4734736995620876
-14.878,0.4719037942137478
-14.8775,0.4687639835170683
-14.877,0.4671940781687286
-14.8765,0.8259174502643649
-14.876,0.8345519296802337
-14.8755,0.8329820243318939
-14.875,0.8321970716577241
-14.8745,0.8306271663093843
-14.874,0.8306271663093843
-14.8735,0.8290572609610445
-14.873,0.8282723082868746
-14.8725,0.8282723082868746
-14.872,0.8267024029385348
-14.8715,0.8259174502643649
-14.871,0.8259174502643649
-14.8705,0.8007989646909287
-14.87,0.4436454979436321
-14.8695,0.4381508292244429
-14.869,0.4405056872469525
-14.8685,0.4428605452694622
-14.868,0.4428605452694622
-14.8675,0.4381508292244429
-14.867,0.6186899442835159
-14.8665,0.8329820243318939
-14.866,0.8055086807359481
-14.8655,0.8321970716577241
-14.865,0.8306271663093843
-14.8645,0.8290572609610445
-14.864,0.8290572609610445
-14.8635,0.8290572609610445
-14.863,0.7701858103983032
-14.8625,0.4695489361912382
-14.862,0.4726887468879177
-14.8615,0.4726887468879177
-14.861,0.4703338888654081
-14.8605,0.4679790308428985
-14.86,0.7105294071613922
-14.8595,0.8353368823544036
-14.859,0.8337669770060638
-14.8585,0.8321970716577241
-14.858,0.8314121189835542
-14.8575,0.8306271663093843
-14.857,0.8298422136352144
-14.8565,0.8290572609610445
-14.856,0.8274873556127047
-14.8555,0.8274873556127047
-14.855,0.8267024029385348
-14.8545,0.8259174502643649
-14.854,0.825132497590195
-14.8535,0.5527539196532458
-14.853,0.4389357818986128
-14.8525,0.4412906399211224
-14.852,0.4428605452694622
-14.8515,0.444430450617802
-14.851,0.4420755925952923
-14.8505,0.4813232263037864
-14.85,0.8337669770060638
-14.8495,0.7968742013200794
-14.849,0.8321970716577241
-14.8485,0.8329820243318939
-14.848,0.8298422136352144
-14.8475,0.8298422136352144
-14.847,0.8298422136352144
-14.8465,0.8282723082868746
-14.846,0.5307752447764891
-14.8455,0.4734736995620876
-14.845,0.4742586522362575
-14.8445,0.4719037942137478
-14.844,0.4695489361912382
-14.8435,0.5959263167325893
-14.843,0.8353368823544036
-14.8425,0.8329820243318939
-14.842,0.8321970716577241
-14.8415,0.8321970716577241
-14.841,0.8314121189835542
-14.8405,0.8298422136352144
-14.84,0.8290572609610445
-14.8395,0.8290572609610445
-14.839,0.8274873556127047
-14.8385,0.8267024029385348
-14.838,0.825132497590195
-14.8375,0.8259174502643649
-14.837,0.6877657796104656
-14.8365,0.4412906399211224
-14.836,0.444430450617802
-14.8355,0.4452154032919718
-14.835,0.4467853086403116
-14.8345,0.4475702613144815
-14.834,0.4405056872469525
-14.8335,0.7380027507573381
-14.833,0.8055086807359481
-14.8325,0.8329820243318939
-14.832,0.8306271663093843
-14.8315,0.8314121189835542
-14.831,0.8298422136352144
-14.8305,0.8290572609610445
-14.83,0.8282723082868746
-14.8295,0.6493030985761413
-14.829,0.4758285575845973
-14.8285,0.4789683682812768
-14.828,0.4773984629329371
-14.8275,0.4758285575845973
-14.827,0.4773984629329371
-14.8265,0.8345519296802337
-14.826,0.8337669770060638
-14.8255,0.8329820243318939
-14.825,0.8321970716577241
-14.8245,0.8314121189835542
-14.824,0.8306271663093843
-14.8235,0.8290572609610445
-14.823,0.8282723082868746
-14.8225,0.8274873556127047
-14.822,0.8274873556127047
-14.8215,0.8259174502643649
-14.821,0.825132497590195
-14.8205,0.8110033494551372
-14.82,0.4538498827078405
-14.8195,0.4467853086403116
-14.819,0.4483552139886514
-14.8185,0.450710072011161
-14.818,0.4514950246853309
-14.8175,0.4467853086403116
-14.817,0.6014209854517785
-14.8165,0.8329820243318939
-14.816,0.8039387753876083
-14.8155,0.8314121189835542
-14.815,0.8306271663093843
-14.8145,0.8306271663093843
-14.814,0.8290572609610445
-14.8135,0.8282723082868746
-14.813,0.7701858103983032
-14.8125,0.4773984629329371
-14.812,0.4805382736296165
-14.8115,0.4805382736296165
-14.811,0.4781834156071069
-14.8105,0.4766135102587672
-14.81,0.7160240758805814
-14.8095,0.8345519296802337
-14.809,0.8337669770060638
-14.8085,0.8321970716577241
-14.808,0.8306271663093843
-14.8075,0.8306271663093843
-14.807,0.8290572609610445
-14.8065,0.8290572609610445
-14.806,0.8274873556127047
-14.8055,0.8274873556127047
-14.805,0.8267024029385348
-14.8045,0.825132497590195
-14.804,0.8243475449160251
-14.8035,0.5660981151141338
-14.803,0.4491401666628213
-14.8025,0.4491401666628213
-14.802,0.4514950246853309
-14.8015,0.4530649300336707
-14.801,0.4514950246853309
-14.8005,0.4766135102587672
-14.8,0.8321970716577241
-14.7995,0.8015839173650986
-14.799,0.8321970716577241
-14.7985,0.8314121189835542
-14.798,0.8298422136352144
-14.7975,0.8290572609610445
-14.797,0.8282723082868746
-14.7965,0.8274873556127047
-14.796,0.5386247715181879
-14.7955,0.4821081789779563
-14.795,0.4836780843262961
-14.7945,0.4813232263037864
-14.794,0.4789683682812768
-14.7935,0.5974962220809291
-14.793,0.8329820243318939
-14.7925,0.8329820243318939
-14.792,0.8306271663093843
-14.7915,0.8314121189835542
-14.791,0.8298422136352144
-14.7905,0.8290572609610445
-14.79,0.8290572609610445
-14.7895,0.8274873556127047
-14.789,0.8267024029385348
-14.7885,0.8267024029385348
-14.788,0.825132497590195
-14.7875,0.8243475449160251
-14.787,0.6838410162396162
-14.7865,0.4483552139886514
-14.786,0.450710072011161
-14.7855,0.4522799773595008
-14.785,0.4530649300336707
-14.7845,0.4530649300336707
-14.784,0.4467853086403116
-14.7835,0.7285833186672995
-14.783,0.8039387753876083
-14.7825,0.8306271663093843
-14.782,0.8306271663093843
-14.7815,0.8306271663093843
-14.781,0.8290572609610445
-14.7805,0.8282723082868746
-14.78,0.8267024029385348
-14.7795,0.6532278619469908
-14.779,0.4797533209554467
-14.7785,0.4828931316521262
-14.778,0.4813232263037864
-14.7775,0.4781834156071069
-14.777,0.4773984629329371
-14.7765,0.8282723082868746
-14.776,0.8321970716577241
-14.7755,0.8321970716577241
-14.775,0.8306271663093843
-14.7745,0.8306271663093843
-14.774,0.8290572609610445
-14.7735,0.8282723082868746
-14.773,0.8274873556127047
-14.7725,0.8267024029385348
-14.772,0.8259174502643649
-14.7715,0.825132497590195
-14.771,0.8243475449160251
-14.7705,0.8094334441067974
-14.77,0.4562047407303502
-14.7695,0.4499251193369911
-14.769,0.450710072011161
-14.7685,0.4522799773595008
-14.768,0.4522799773595008
-14.7675,0.4475702613144815
-14.767,0.6006360327776086
-14.7665,0.8321970716577241
-14.766,0.8039387753876083
-14.7655,0.8298422136352144
-14.765,0.8298422136352144
-14.7645,0.8290572609610445
-14.764,0.8282723082868746
-14.7635,0.8274873556127047
-14.763,0.7741105737691527
-14.7625,0.4789683682812768
-14.762,0.4836780843262961
-14.7615,0.4821081789779563
-14.761,0.4805382736296165
-14.7605,0.4781834156071069
-14.76,0.712099312509732
-14.7595,0.8329820243318939
-14.759,0.8321970716577241
-14.7585,0.8306271663093843
-14.758,0.8306271663093843
-14.7575,0.8298422136352144
-14.757,0.8282723082868746
-14.7565,0.8282723082868746
-14.756,0.8274873556127047
-14.7555,0.8259174502643649
-14.755,0.825132497590195
-14.7545,0.8243475449160251
-14.754,0.8235625922418554
-14.7535,0.5606034463949446
-14.753,0.4483552139886514
-14.7525,0.450710072011161
-14.752,0.4514950246853309
-14.7515,0.4530649300336707
-14.751,0.450710072011161
-14.7505,0.4836780843262961
-14.75,0.8306271663093843
-14.7495,0.8023688700392685
-14.749,0.8306271663093843
-14.7485,0.8290572609610445
-14.748,0.8282723082868746
-14.7475,0.8282723082868746
-14.747,0.8267024029385348
-14.7465,0.8267024029385348
-14.746,0.5409796295406976
-14.7455,0.4821081789779563
-14.745,0.4821081789779563
-14.7445,0.4797533209554467
-14.744,0.4781834156071069
-14.7435,0.5896466953392303
-14.743,0.8329820243318939
-14.7425,0.8314121189835542
-14.742,0.8306271663093843
-14.7415,0.8298422136352144
-14.741,0.8290572609610445
-14.7405,0.8290572609610445
-14.74,0.8282723082868746
-14.7395,0.8267024029385348
-14.739,0.8259174502643649
-14.7385,0.825132497590195
-14.738,0.8235625922418554
-14.7375,0.8235625922418554
-14.737,0.6869808269362957
-14.7365,0.4452154032919718
-14.736,0.4467853086403116
-14.7355,0.4491401666628213
-14.735,0.4514950246853309
-14.7345,0.4514950246853309
-14.734,0.4452154032919718
-14.7335,0.7466372301732068
-14.733,0.8070785860842877
-14.7325,0.8306271663093843
-14.732,0.8290572609610445
-14.7315,0.8282723082868746
-14.731,0.8274873556127047
-14.7305,0.8267024029385348
-14.73,0.8259174502643649
-14.7295,0.6587225306661799
-14.729,0.4797533209554467
-14.7285,0.4821081789779563
-14.728,0.4805382736296165
-14.7275,0.4781834156071069
-14.727,0.4773984629329371
-14.7265,0.8298422136352144
-14.726,0.8329820243318939
-14.7255,0.8306271663093843
-14.725,0.8298422136352144
-14.7245,0.8290572609610445
-14.724,0.8290572609610445
-14.7235,0.8274873556127047
-14.723,0.8267024029385348
-14.7225,0.8267024029385348
-14.722,0.825132497590195
-14.7215,0.8243475449160251
-14.721,0.8227776395676855
-14.7205,0.8055086807359481
-14.72,0.4522799773595008
-14.7195,0.4460003559661417
-14.719,0.4475702613144815
-14.7185,0.4491401666628213
-14.718,0.4499251193369911
-14.7175,0.4460003559661417
-14.717,0.6179049916093461
-14.7165,0.8321970716577241
-14.716,0.7929494379492299
-14.7155,0.8298422136352144
-14.715,0.8290572609610445
-14.7145,0.8282723082868746
-14.714,0.8274873556127047
-14.7135,0.8267024029385348
-14.713,0.7741105737691527
-14.7125,0.4766135102587672
-14.712,0.4805382736296165
-14.7115,0.4789683682812768
-14.711,0.4758285575845973
-14.7105,0.4742586522362575
-14.71,0.7042497857680331
-14.7095,0.8321970716577241
-14.709,0.8306271663093843
-14.7085,0.8306271663093843
-14.708,0.8290572609610445
-14.7075,0.8282723082868746
-14.707,0.8274873556127047
-14.7065,0.8274873556127047
-14.706,0.8259174502643649
-14.7055,0.8243475449160251
-14.705,0.8243475449160251
-14.7045,0.8235625922418554
-14.704,0.8227776395676855
-14.7035,0.5621733517432843
-14.703,0.444430450617802
-14.7025,0.4460003559661417
-14.702,0.4475702613144815
-14.7015,0.4491401666628213
-14.701,0.4460003559661417
-14.7005,0.484463037000466
-14.7,0.8306271663093843
-14.6995,0.8039387753876083
-14.699,0.8290572609610445
-14.6985,0.8290572609610445
-14.698,0.8282723082868746
-14.6975,0.8274873556127047
-14.697,0.8267024029385348
-14.6965,0.825132497590195
-14.696,0.5394097241923578
-14.6955,0.4766135102587672
-14.695,0.4789683682812768
-14.6945,0.4773984629329371
-14.694,0.4742586522362575
-14.6935,0.5770874525525121
-14.693,0.8329820243318939
-14.6925,0.8314121189835542
-14.692,0.8298422136352144
-14.6915,0.8298422136352144
-14.691,0.8282723082868746
-14.6905,0.8274873556127047
-14.69,0.8267024029385348
-14.6895,0.8267024029385348
-14.689,0.825132497590195
-14.6885,0.825132497590195
-14.688,0.8235625922418554
-14.6875,0.8235625922418554
-14.687,0.6932604483296548
-14.6865,0.4428605452694622
-14.686,0.444430450617802
-14.6855,0.4460003559661417
-14.685,0.4475702613144815
-14.6845,0.4475702613144815
-14.684,0.4412906399211224
-14.6835,0.7160240758805814
-14.683,0.8086484914326275
-14.6825,0.8314121189835542
-14.682,0.8298422136352144
-14.6815,0.8290572609610445
-14.681,0.8282723082868746
-14.6805,0.8274873556127047
-14.68,0.8267024029385348
-14.6795,0.6555827199695005
-14.679,0.4726887468879177
-14.6785,0.4773984629329371
-14.678,0.4742586522362575
-14.6775,0.4719037942137478
-14.677,0.4695489361912382
-14.6765,0.8149281128259867
-14.676,0.8314121189835542
-14.6755,0.8314121189835542
-14.675,0.8306271663093843
-14.6745,0.8298422136352144
-14.674,0.8282723082868746
-14.6735,0.8282723082868746
-14.673,0.8267024029385348
-14.6725,0.8259174502643649
-14.672,0.825132497590195
-14.6715,0.8243475449160251
-14.671,0.8235625922418554
-14.6705,0.8117883021293071
-14.67,0.4514950246853309
-14.6695,0.4428605452694622
-14.669,0.4428605452694622
-14.6685,0.4460003559661417
-14.668,0.4475702613144815
-14.6675,0.4436454979436321
-14.667,0.5865068846425507
-14.6665,0.8314121189835542
-14.666,0.8086484914326275
-14.6655,0.8306271663093843
-14.665,0.8290572609610445
-14.6645,0.8290572609610445
-14.664,0.8282723082868746
-14.6635,0.8267024029385348
-14.663,0.7741105737691527
-14.6625,0.4719037942137478
-14.662,0.4758285575845973
-14.6615,0.4750436049104274
-14.661,0.4734736995620876
-14.6605,0.4719037942137478
-14.66,0.7026798804196934
-14.6595,0.8321970716577241
-14.659,0.8314121189835542
-14.6585,0.8314121189835542
-14.658,0.8298422136352144
-14.6575,0.8290572609610445
-14.657,0.8282723082868746
-14.6565,0.8282723082868746
-14.656,0.8267024029385348
-14.6555,0.8259174502643649
-14.655,0.825132497590195
-14.6545,0.8243475449160251
-14.654,0.8243475449160251
-14.6535,0.5723777365074929
-14.653,0.4389357818986128
-14.6525,0.4412906399211224
-14.652,0.4428605452694622
-14.6515,0.444430450617802
-14.651,0.4420755925952923
-14.6505,0.4397207345727827
-14.65,0.8204227815451758
-14.6495,0.8007989646909287
-14.649,0.8314121189835542
-14.6485,0.8306271663093843
-14.648,0.8298422136352144
-14.6475,0.8282723082868746
-14.647,0.8267024029385348
-14.6465,0.8267024029385348
-14.646,0.5323451501248289
-14.6455,0.4719037942137478
-14.645,0.4734736995620876
-14.6445,0.4703338888654081
-14.644,0.4687639835170683
-14.6435,0.5755175472041724
-14.643,0.8337669770060638
-14.6425,0.8329820243318939
-14.642,0.8314121189835542
-14.6415,0.8306271663093843
-14.641,0.8298422136352144
-14.6405,0.8290572609610445
-14.64,0.8290572609610445
-14.6395,0.8282723082868746
-14.639,0.8259174502643649
-14.6385,0.8267024029385348
-14.638,0.825132497590195
-14.6375,0.8243475449160251
-14.637,0.698755117048844
-14.6365,0.4397207345727827
-14.636,0.4412906399211224
-14.6355,0.4436454979436321
-14.635,0.4436454979436321
-14.6345,0.4436454979436321
-14.634,0.437365876550273
-14.6335,0.6932604483296548
-14.633,0.8070785860842877
-14.6325,0.8314121189835542
-14.632,0.8298422136352144
-14.6315,0.8298422136352144
-14.631,0.8290572609610445
-14.6305,0.8274873556127047
-14.63,0.8274873556127047
-14.6295,0.6493030985761413
-14.629,0.4632693147978791
-14.6285,0.4648392201462189
-14.628,0.4632693147978791
-14.6275,0.4609144567753695
-14.627,0.4593445514270297
-14.6265,0.8227776395676855
-14.626,0.8337669770060638
-14.6255,0.8337669770060638
-14.625,0.8321970716577241
-14.6245,0.8314121189835542
-14.624,0.8298422136352144
-14.6235,0.8290572609610445
-14.623,0.8290572609610445
-14.6225,0.8274873556127047
-14.622,0.8267024029385348
-14.6215,0.8259174502643649
-14.621,0.825132497590195
-14.6205,0.8164980181743264
-14.62,0.450710072011161
-14.6195,0.4357959712019333
-14.619,0.4389357818986128
-14.6185,0.4397207345727827
-14.618,0.4412906399211224
-14.6175,0.437365876550273
-14.617,0.5613883990691145
-14.6165,0.8337669770060638
-14.616,0.798444106668419
-14.6155,0.8321970716577241
-14.615,0.8314121189835542
-14.6145,0.8298422136352144
-14.614,0.8298422136352144
-14.6135,0.8282723082868746
-14.613,0.7764654317916624
-14.6125,0.4671940781687286
-14.612,0.4719037942137478
-14.6115,0.4719037942137478
-14.611,0.4695489361912382
-14.6105,0.4671940781687286
-14.61,0.7066046437905428
-14.6095,0.8337669770060638
-14.609,0.8337669770060638
-14.6085,0.8321970716577241
-14.608,0.8314121189835542
-14.6075,0.8314121189835542
-14.607,0.8298422136352144
-14.6065,0.8298422136352144
-14.606,0.8282723082868746
-14.6055,0.8274873556127047
-14.605,0.8267024029385348
-14.6045,0.8259174502643649
-14.604,0.825132497590195
-14.6035,0.5770874525525121
-14.603,0.4412906399211224
-14.6025,0.444430450617802
-14.602,0.4460003559661417
-14.6015,0.4483552139886514
-14.601,0.4460003559661417
-14.6005,0.444430450617802
-14.6,0.8227776395676855
-14.5995,0.8102183967809673
-14.599,0.8329820243318939
-14.5985,0.8321970716577241
-14.598,0.8306271663093843
-14.5975,0.8306271663093843
-14.597,0.8282723082868746
-14.5965,0.8282723082868746
-14.596,0.537839818844018
-14.5955,0.4766135102587672
-14.595,0.4773984629329371
-14.5945,0.4742586522362575
-14.594,0.4726887468879177
-14.5935,0.5841520266200411
-14.593,0.8353368823544036
-14.5925,0.8337669770060638
-14.592,0.8337669770060638
-14.5915,0.8314121189835542
-14.591,0.8314121189835542
-14.5905,0.8306271663093843
-14.59,0.8298422136352144
-14.5895,0.8282723082868746
-14.589,0.8282723082868746
-14.5885,0.8267024029385348
-14.588,0.825132497590195
-14.5875,0.8259174502643649
-14.587,0.7073895964647127
-14.5865,0.444430450617802
-14.586,0.4460003559661417
-14.5855,0.4475702613144815
-14.585,0.4491401666628213
-14.5845,0.4499251193369911
-14.584,0.444430450617802
-14.5835,0.6940454010038246
-14.583,0.8015839173650986
-14.5825,0.8321970716577241
-14.582,0.8321970716577241
-14.5815,0.8314121189835542
-14.581,0.8298422136352144
-14.5805,0.8290572609610445
-14.58,0.8282723082868746
-14.5795,0.6555827199695005
-14.579,0.4758285575845973
-14.5785,0.4805382736296165
-14.578,0.4789683682812768
-14.5775,0.4766135102587672
-14.577,0.4750436049104274
-14.5765,0.8321970716577241
-14.576,0.8337669770060638
-14.5755,0.8329820243318939
-14.575,0.8314121189835542
-14.5745,0.8314121189835542
-14.574,0.8306271663093843
-14.5735,0.8298422136352144
-14.573,0.8282723082868746
-14.5725,0.8282723082868746
-14.572,0.8274873556127047
-14.5715,0.8259174502643649
-14.571,0.825132497590195
-14.5705,0.8235625922418554
-14.57,0.4671940781687286
-14.5695,0.4483552139886514
-14.569,0.4499251193369911
-14.5685,0.4522799773595008
-14.568,0.4538498827078405
-14.5675,0.450710072011161
-14.567,0.5598184937207747
-14.5665,0.8321970716577241
-14.566,0.8055086807359481
-14.5655,0.8314121189835542
-14.565,0.8306271663093843
-14.5645,0.8290572609610445
-14.564,0.8290572609610445
-14.5635,0.8282723082868746
-14.563,0.7780353371400022
-14.5625,0.4789683682812768
-14.562,0.4821081789779563
-14.5615,0.4828931316521262
-14.561,0.4805382736296165
-14.5605,0.4781834156071069
-14.56,0.7144541705322416
-14.5595,0.8337669770060638
-14.559,0.8329820243318939
-14.5585,0.8314121189835542
-14.558,0.8314121189835542
-14.5575,0.8306271663093843
-14.557,0.8290572609610445
-14.5565,0.8290572609610445
-14.556,0.8282723082868746
-14.5555,0.8267024029385348
-14.555,0.8259174502643649
-14.5545,0.8259174502643649
-14.554,0.8243475449160251
-14.5535,0.5896466953392303
-14.553,0.450710072011161
-14.5525,0.4538498827078405
-14.552,0.4546348353820104
-14.5515,0.4569896934045201
-14.551,0.4546348353820104
-14.5505,0.4679790308428985
-14.55,0.8298422136352144
-14.5495,0.8047237280617782
-14.549,0.8314121189835542
-14.5485,0.8298422136352144
-14.548,0.8298422136352144
-14.5475,0.8282723082868746
-14.547,0.8282723082868746
-14.5465,0.8267024029385348
-14.546,0.5543238250015856
-14.5455,0.4860329423488058
-14.545,0.4876028476971455
-14.5445,0.4852479896746359
-14.544,0.4836780843262961
-14.5435,0.5935714587100797
-14.543,0.8329820243318939
-14.5425,0.8314121189835542
-14.542,0.8314121189835542
-14.5415,0.8306271663093843
-14.541,0.8290572609610445
-14.5405,0.8290572609610445
-14.54,0.8274873556127047
-14.5395,0.8274873556127047
-14.539,0.8267024029385348
-14.5385,0.825132497590195
-14.538,0.825132497590195
-14.5375,0.8235625922418554
-14.537,0.7026798804196934
-14.5365,0.4522799773595008
-14.536,0.4530649300336707
-14.5355,0.4562047407303502
-14.535,0.45777464607869
-14.5345,0.45777464607869
-14.534,0.4514950246853309
-14.5335,0.7411425614540176
-14.533,0.8023688700392685
-14.5325,0.8306271663093843
-14.532,0.8306271663093843
-14.5315,0.8290572609610445
-14.531,0.8282723082868746
-14.5305,0.8274873556127047
-14.53,0.8267024029385348
-14.5295,0.6704968207787282
-14.529,0.4868178950229757
-14.5285,0.490742658393825
-14.528,0.4883878003713154
-14.5275,0.4860329423488058
-14.527,0.484463037000466
-14.5265,0.825132497590195
-14.526,0.8314121189835542
-14.5255,0.8306271663093843
-14.525,0.8298422136352144
-14.5245,0.8282723082868746
-14.524,0.8282723082868746
-14.5235,0.8274873556127047
-14.523,0.8259174502643649
-14.5225,0.8259174502643649
-14.522,0.825132497590195
-14.5215,0.8243475449160251
-14.521,0.8235625922418554
-14.5205,0.8110033494551372
-14.52,0.4632693147978791
-14.5195,0.4546348353820104
-14.519,0.4569896934045201
-14.5185,0.45777464607869
-14.518,0.4585595987528599
-14.5175,0.4538498827078405
-14.517,0.645378335205292
-14.5165,0.8306271663093843
-14.516,0.798444106668419
-14.5155,0.8298422136352144
-14.515,0.8282723082868746
-14.5145,0.8282723082868746
-14.514,0.8267024029385348
-14.5135,0.8259174502643649
-14.513,0.7890246745783804
-14.5125,0.4868178950229757
-14.512,0.4915276110679949
-14.5115,0.490742658393825
-14.511,0.4876028476971455
-14.5105,0.4852479896746359
-14.51,0.698755117048844
-14.5095,0.8306271663093843
-14.509,0.8298422136352144
-14.5085,0.8290572609610445
-14.508,0.8290572609610445
-14.5075,0.8274873556127047
-14.507,0.8267024029385348
-14.5065,0.8259174502643649
-14.506,0.8259174502643649
-14.5055,0.8243475449160251
-14.505,0.8235625922418554
-14.5045,0.8227776395676855
-14.504,0.8227776395676855
-14.5035,0.5660981151141338
-14.503,0.4546348353820104
-14.5025,0.4569896934045201
-14.502,0.45777464607869
-14.5015,0.4593445514270297
-14.501,0.4562047407303502
-14.5005,0.5292053394281493
-14.5,0.8306271663093843
-14.4995,0.8055086807359481
-14.499,0.8282723082868746
-14.4985,0.8274873556127047
-14.498,0.8267024029385348
-14.4975,0.8259174502643649
-14.497,0.825132497590195
-14.4965,0.8243475449160251
-14.496,0.5660981151141338
-14.4955,0.4891727530454853
-14.495,0.490742658393825
-14.4945,0.4876028476971455
-14.494,0.4852479896746359
-14.4935,0.5802272632491917
-14.493,0.8314121189835542
-14.4925,0.8306271663093843
-14.492,0.8282723082868746
-14.4915,0.8282723082868746
-14.491,0.8274873556127047
-14.4905,0.8259174502643649
-14.49,0.8259174502643649
-14.4895,0.8259174502643649
-14.489,0.8235625922418554
-14.4885,0.8235625922418554
-14.488,0.8227776395676855
-14.4875,0.8219926868935156
-14.487,0.6869808269362957
-14.4865,0.4514950246853309
-14.486,0.4530649300336707
-14.4855,0.4546348353820104
-14.485,0.4562047407303502
-14.4845,0.4554197880561803
-14.484,0.4491401666628213
-14.4835,0.7874547692300407
-14.483,0.8039387753876083
-14.4825,0.8282723082868746
-14.482,0.8267024029385348
-14.4815,0.8267024029385348
-14.481,0.8259174502643649
-14.4805,0.825132497590195
-14.48,0.8243475449160251
-14.4795,0.6744215841495776
-14.479,0.4852479896746359
-14.4785,0.4899577057196551
-14.478,0.4876028476971455
-14.4775,0.484463037000466
-14.477,0.4821081789779563
-14.4765,0.8219926868935156
-14.476,0.8306271663093843
-14.4755,0.8274873556127047
-14.475,0.8267024029385348
-14.4745,0.8267024029385348
-14.474,0.8267024029385348
-14.4735,0.825132497590195
-14.473,0.8243475449160251
-14.4725,0.8243475449160251
-14.472,0.8227776395676855
-14.4715,0.8219926868935156
-14.471,0.8219926868935156
-14.4705,0.8047237280617782
-14.47,0.45777464607869
-14.4695,0.4522799773595008
-14.469,0.4530649300336707
-14.4685,0.4546348353820104
-14.468,0.4546348353820104
-14.4675,0.4499251193369911
-14.467,0.6540128146211607
-14.4665,0.8274873556127047
-14.466,0.8039387753876083
-14.4655,0.8274873556127047
-14.465,0.8259174502643649
-14.4645,0.825132497590195
-14.464,0.8243475449160251
-14.4635,0.8243475449160251
-14.463,0.7827450531850214
-14.4625,0.4828931316521262
-14.462,0.4868178950229757
-14.4615,0.4868178950229757
-14.461,0.484463037000466
-14.4605,0.4821081789779563
-14.46,0.7066046437905428
-14.4595,0.8282723082868746
-14.459,0.8282723082868746
-14.4585,0.8274873556127047
-14.458,0.8259174502643649
-14.4575,0.825132497590195
-14.457,0.825132497590195
-14.4565,0.8235625922418554
-14.456,0.8235625922418554
-14.4555,0.8227776395676855
-14.455,0.8219926868935156
-14.4545,0.8212077342193457
-14.454,0.8196378288710059
-14.4535,0.5668830677883037
-14.453,0.4491401666628213
-14.4525,0.4499251193369911
-14.452,0.4522799773595008
-14.4515,0.4530649300336707
-14.451,0.4499251193369911
-14.4505,0.5197859073381107
-14.45,0.8290572609610445
-14.4495,0.8000140120167588
-14.449,0.8274873556127047
-14.4485,0.8259174502643649
-14.448,0.825132497590195
-14.4475,0.8243475449160251
-14.447,0.8235625922418554
-14.4465,0.8227776395676855
-14.446,0.558248588372435
-14.4455,0.4836780843262961
-14.445,0.4860329423488058
-14.4445,0.4828931316521262
-14.444,0.4805382736296165
-14.4435,0.5912166006875701
-14.443,0.8290572609610445
-14.4425,0.8274873556127047
-14.442,0.8267024029385348
-14.4415,0.8267024029385348
-14.441,0.8259174502643649
-14.4405,0.8259174502643649
-14.44,0.8243475449160251
-14.4395,0.8235625922418554
-14.439,0.8219926868935156
-14.4385,0.8212077342193457
-14.438,0.8212077342193457
-14.4375,0.8204227815451758
-14.437,0.6964002590263343
-14.4365,0.4467853086403116
-14.436,0.4491401666628213
-14.4355,0.4499251193369911
-14.435,0.4522799773595008
-14.4345,0.450710072011161
-14.434,0.444430450617802
-14.4335,0.7701858103983032
-14.433,0.8102183967809673
-14.4325,0.8274873556127047
-14.432,0.825132497590195
-14.4315,0.8259174502643649
-14.431,0.8243475449160251
-14.4305,0.8235625922418554
-14.43,0.8227776395676855
-14.4295,0.6689269154303884
-14.429,0.4805382736296165
-14.4285,0.484463037000466
-14.428,0.4821081789779563
-14.4275,0.4797533209554467
-14.427,0.4789683682812768
-14.4265,0.8274873556127047
-14.426,0.8282723082868746
-14.4255,0.8282723082868746
-14.425,0.8267024029385348
-14.4245,0.8259174502643649
-14.424,0.8243475449160251
-14.4235,0.8243475449160251
-14.423,0.8235625922418554
-14.4225,0.8219926868935156
-14.422,0.8212077342193457
-14.4215,0.8212077342193457
-14.421,0.8204227815451758
-14.4205,0.8110033494551372
-14.42,0.4569896934045201
-14.4195,0.4483552139886514
-14.419,0.4483552139886514
-14.4185,0.450710072011161
-14.418,0.4522799773595008
-14.4175,0.4467853086403116
-14.417,0.6359589031152534
-14.4165,0.8274873556127047
-14.416,0.8000140120167588
-14.4155,0.825132497590195
-14.415,0.825132497590195
-14.4145,0.8243475449160251
-14.414,0.8243475449160251
-14.4135,0.8235625922418554
-14.413,0.7827450531850214
-14.4125,0.4781834156071069
-14.412,0.4828931316521262
-14.4115,0.4821081789779563
-14.411,0.4797533209554467
-14.4105,0.4766135102587672
-14.41,0.7113143598355621
-14.4095,0.8274873556127047
-14.409,0.8282723082868746
-14.4085,0.8267024029385348
-14.408,0.8259174502643649
-14.4075,0.825132497590195
-14.407,0.8243475449160251
-14.4065,0.8235625922418554
-14.406,0.8227776395676855
-14.4055,0.8219926868935156
-14.405,0.8219926868935156
-14.4045,0.8204227815451758
-14.404,0.818852876196836
-14.4035,0.5747325945300025
-14.403,0.4460003559661417
-14.4025,0.4467853086403116
-14.402,0.4491401666628213
-14.4015,0.450710072011161
-14.401,0.4475702613144815
-14.4005,0.504871806528883
-14.4,0.8282723082868746
-14.3995,0.798444106668419
-14.399,0.8267024029385348
-14.3985,0.825132497590195
-14.398,0.8259174502643649
-14.3975,0.8243475449160251
-14.397,0.8219926868935156
-14.3965,0.8227776395676855
-14.396,0.5527539196532458
-14.3955,0.4805382736296165
-14.395,0.4813232263037864
-14.3945,0.4789683682812768
-14.394,0.4766135102587672
-14.3935,0.5951413640584194
-14.393,0.8274873556127047
-14.3925,0.8274873556127047
-14.392,0.8274873556127047
-14.3915,0.8267024029385348
-14.391,0.825132497590195
-14.3905,0.825132497590195
-14.39,0.8235625922418554
-14.3895,0.8227776395676855
-14.389,0.8227776395676855
-14.3885,0.8212077342193457
-14.388,0.8212077342193457
-14.3875,0.8196378288710059
-14.387,0.7026798804196934
-14.3865,0.4436454979436321
-14.386,0.4460003559661417
-14.3855,0.4467853086403116
-14.385,0.4491401666628213
-14.3845,0.4483552139886514
-14.384,0.4420755925952923
-14.3835,0.7552717095890755
-14.383,0.8000140120167588
-14.3825,0.8259174502643649
-14.382,0.8259174502643649
-14.3815,0.8243475449160251
-14.381,0.8243475449160251
-14.3805,0.8219926868935156
-14.38,0.8227776395676855
-14.3795,0.6673570100820486
-14.379,0.4773984629329371
-14.3785,0.4821081789779563
-14.378,0.4797533209554467
-14.3775,0.4773984629329371
-14.377,0.4789683682812768
-14.3765,0.8290572609610445
-14.376,0.8282723082868746
-14.3755,0.8274873556127047
-14.375,0.8267024029385348
-14.3745,0.8259174502643649
-14.374,0.8243475449160251
-14.3735,0.8243475449160251
-14.373,0.8235625922418554
-14.3725,0.8219926868935156
-14.372,0.8219926868935156
-14.3715,0.8204227815451758
-14.371,0.8196378288710059
-14.3705,0.8164980181743264
-14.37,0.4593445514270297
-14.3695,0.444430450617802
-14.369,0.4467853086403116
-14.3685,0.4483552139886514
-14.368,0.4499251193369911
-14.3675,0.4452154032919718
-14.367,0.6241846130027051
-14.3665,0.8282723082868746
-14.366,0.7913795326008901
-14.3655,0.8259174502643649
-14.365,0.8259174502643649
-14.3645,0.825132497590195
-14.364,0.8243475449160251
-14.3635,0.8227776395676855
-14.363,0.7796052424883418
-14.3625,0.4766135102587672
-14.362,0.4805382736296165
-14.3615,0.4805382736296165
-14.361,0.4781834156071069
-14.3605,0.4750436049104274
-14.36,0.7160240758805814
-14.3595,0.8290572609610445
-14.359,0.8282723082868746
-14.3585,0.8274873556127047
-14.358,0.825132497590195
-14.3575,0.8243475449160251
-14.357,0.8243475449160251
-14.3565,0.8235625922418554
-14.356,0.8235625922418554
-14.3555,0.8212077342193457
-14.355,0.8212077342193457
-14.3545,0.8204227815451758
-14.354,0.8196378288710059
-14.3535,0.5872918373167206
-14.353,0.4452154032919718
-14.3525,0.4475702613144815
-14.352,0.4491401666628213
-14.3515,0.4514950246853309
-14.351,0.4483552139886514
-14.3505,0.4719037942137478
-14.35,0.8259174502643649
-14.3495,0.798444106668419
-14.349,0.8274873556127047
-14.3485,0.825132497590195
-14.348,0.8259174502643649
-14.3475,0.8243475449160251
-14.347,0.8235625922418554
-14.3465,0.8219926868935156
-14.346,0.544119440237377
-14.3455,0.4797533209554467
-14.345,0.4813232263037864
-14.3445,0.4789683682812768
-14.344,0.4766135102587672
-14.3435,0.6124103228901568
-14.343,0.8298422136352144
-14.3425,0.8274873556127047
-14.342,0.8259174502643649
-14.3415,0.8267024029385348
-14.341,0.8267024029385348
-14.3405,0.8243475449160251
-14.34,0.8235625922418554
-14.3395,0.8227776395676855
-14.339,0.8227776395676855
-14.3385,0.8212077342193457
-14.338,0.8204227815451758
-14.3375,0.8196378288710059
-14.337,0.7230886499481103
-14.3365,0.4452154032919718
-14.336,0.4483552139886514
-14.3355,0.4499251193369911
-14.335,0.4514950246853309
-14.3345,0.4514950246853309
-14.334,0.4467853086403116
-14.3335,0.6940454010038246
-14.333,0.8000140120167588
-14.3325,0.8267024029385348
-14.332,0.8259174502643649
-14.3315,0.825132497590195
-14.331,0.825132497590195
-14.3305,0.8235625922418554
-14.33,0.8227776395676855
-14.3295,0.6602924360145197
-14.329,0.4773984629329371
-14.3285,0.4821081789779563
-14.328,0.4797533209554467
-14.3275,0.4773984629329371
-14.327,0.4993771378096937
-14.3265,0.8282723082868746
-14.326,0.8282723082868746
-14.3255,0.8274873556127047
-14.325,0.8259174502643649
-14.3245,0.8259174502643649
-14.324,0.825132497590195
-14.3235,0.8243475449160251
-14.323,0.8235625922418554
-14.3225,0.8219926868935156
-14.322,0.8219926868935156
-14.3215,0.8219926868935156
-14.321,0.8196378288710059
-14.3205,0.8196378288710059
-14.32,0.4781834156071069
-14.3195,0.4491401666628213
-14.319,0.4514950246853309
-14.3185,0.4530649300336707
-14.318,0.4546348353820104
-14.3175,0.4499251193369911
-14.317,0.5755175472041724
-14.3165,0.8274873556127047
-14.316,0.798444106668419
-14.3155,0.8267024029385348
-14.315,0.825132497590195
-14.3145,0.825132497590195
-14.314,0.8235625922418554
-14.3135,0.8235625922418554
-14.313,0.7811751478366816
-14.3125,0.4797533209554467
-14.312,0.4852479896746359
-14.3115,0.484463037000466
-14.311,0.4821081789779563
-14.3105,0.4797533209554467
-14.31,0.7223036972739405
-14.3095,0.8290572609610445
-14.309,0.8274873556127047
-14.3085,0.8274873556127047
-14.308,0.8259174502643649
-14.3075,0.825132497590195
-14.307,0.825132497590195
-14.3065,0.8235625922418554
-14.306,0.8219926868935156
-14.3055,0.8212077342193457
-14.305,0.8212077342193457
-14.3045,0.8204227815451758
-14.304,0.8196378288710059
-14.3035,0.5990661274292689
-14.303,0.4514950246853309
-14.3025,0.4538498827078405
-14.302,0.4554197880561803
-14.3015,0.4569896934045201
-14.301,0.4554197880561803
-14.3005,0.4609144567753695
-14.3,0.8227776395676855
-14.2995,0.798444106668419
-14.299,0.8259174502643649
-14.2985,0.825132497590195
-14.298,0.8243475449160251
-14.2975,0.8235625922418554
-14.297,0.8227776395676855
-14.2965,0.8219926868935156
-14.296,0.5566786830240952
-14.2955,0.4868178950229757
-14.295,0.4891727530454853
-14.2945,0.4860329423488058
-14.294,0.4836780843262961
-14.2935,0.5967112694067592
-14.293,0.8274873556127047
-14.2925,0.8282723082868746
-14.292,0.8259174502643649
-14.2915,0.8274873556127047
-14.291,0.8243475449160251
-14.2905,0.8243475449160251
-14.29,0.8235625922418554
-14.2895,0.8227776395676855
-14.289,0.8219926868935156
-14.2885,0.8204227815451758
-14.288,0.8204227815451758
-14.2875,0.8204227815451758
-14.287,0.7073895964647127
-14.2865,0.4530649300336707
-14.286,0.4554197880561803
-14.2855,0.4562047407303502
-14.285,0.45777464607869
-14.2845,0.45777464607869
-14.284,0.4514950246853309
-14.2835,0.7372177980831682
-14.283,0.8007989646909287
-14.2825,0.8267024029385348
-14.282,0.825132497590195
-14.2815,0.825132497590195
-14.281,0.8235625922418554
-14.2805,0.8227776395676855
-14.28,0.8219926868935156
-14.2795,0.6736366314754078
-14.279,0.4868178950229757
-14.2785,0.490742658393825
-14.278,0.4883878003713154
-14.2775,0.4868178950229757
-14.277,0.484463037000466
-14.2765,0.8094334441067974
-14.276,0.8274873556127047
-14.2755,0.8259174502643649
-14.275,0.8259174502643649
-14.2745,0.825132497590195
-14.274,0.8243475449160251
-14.2735,0.8235625922418554
-14.273,0.8227776395676855
-14.2725,0.8219926868935156
-14.272,0.8212077342193457
-14.2715,0.8204227815451758
-14.271,0.818852876196836
-14.2705,0.8141431601518168
-14.27,0.4671940781687286
-14.2695,0.4554197880561803
-14.269,0.4562047407303502
-14.2685,0.4593445514270297
-14.268,0.4593445514270297
-14.2675,0.4546348353820104
-14.267,0.6210448023060255
-14.2665,0.8259174502643649
-14.266,0.8000140120167588
-14.2655,0.825132497590195
-14.265,0.8243475449160251
-14.2645,0.8235625922418554
-14.264,0.8227776395676855
-14.2635,0.8219926868935156
-14.263,0.7890246745783804
-14.2625,0.4852479896746359
-14.262,0.490742658393825
-14.2615,0.4899577057196551
-14.261,0.4868178950229757
-14.2605,0.484463037000466
-14.26,0.6885507322846355
-14.2595,0.8267024029385348
-14.259,0.8267024029385348
-14.2585,0.8259174502643649
-14.258,0.825132497590195
-14.2575,0.8235625922418554
-14.257,0.8235625922418554
-14.2565,0.8227776395676855
-14.256,0.8212077342193457
-14.2555,0.8204227815451758
-14.255,0.818852876196836
-14.2545,0.818852876196836
-14.254,0.8180679235226661
-14.2535,0.5865068846425507
-14.253,0.4522799773595008
-14.2525,0.4530649300336707
-14.252,0.4562047407303502
-14.2515,0.4569896934045201
-14.251,0.4554197880561803
-14.2505,0.4915276110679949
-14.25,0.825132497590195
-14.2495,0.7945193432975697
-14.249,0.825132497590195
-14.2485,0.8243475449160251
-14.248,0.8235625922418554
-14.2475,0.8227776395676855
-14.247,0.8212077342193457
-14.2465,0.8212077342193457
-14.246,0.564528209765794
-14.2455,0.4852479896746359
-14.245,0.4883878003713154
-14.2445,0.4852479896746359
-14.244,0.4821081789779563
-14.2435,0.5684529731366434
-14.243,0.8290572609610445
-14.2425,0.8259174502643649
-14.242,0.8259174502643649
-14.2415,0.8243475449160251
-14.241,0.8235625922418554
-14.2405,0.8227776395676855
-14.24,0.8227776395676855
-14.2395,0.8219926868935156
-14.239,0.8204227815451758
-14.2385,0.8204227815451758
-14.238,0.8196378288710059
-14.2375,0.818852876196836
-14.237,0.705034738442203
-14.2365,0.4522799773595008
-14.236,0.4530649300336707
-14.2355,0.4538498827078405
-14.235,0.4554197880561803
-14.2345,0.4546348353820104
-14.234,0.4491401666628213
-14.2335,0.6995400697230139
-14.233,0.7960892486459095
-14.2325,0.8259174502643649
-14.232,0.8243475449160251
-14.2315,0.8243475449160251
-14.231,0.8235625922418554
-14.2305,0.8219926868935156
-14.23,0.8219926868935156
-14.2295,0.672066726127068
-14.229,0.4805382736296165
-14.2285,0.4836780843262961
-14.228,0.4813232263037864
-14.2275,0.4797533209554467
-14.227,0.4773984629329371
-14.2265,0.8000140120167588
-14.226,0.8259174502643649
-14.2255,0.8267024029385348
-14.225,0.8243475449160251
-14.2245,0.825132497590195
-14.224,0.8235625922418554
-14.2235,0.8227776395676855
-14.223,0.8227776395676855
-14.2225,0.8212077342193457
-14.222,0.8212077342193457
-14.2215,0.8196378288710059
-14.221,0.8196378288710059
-14.2205,0.812573254803477
-14.22,0.4624843621237092
-14.2195,0.4491401666628213
-14.219,0.4514950246853309
-14.2185,0.4530649300336707
-14.218,0.4538498827078405
-14.2175,0.4491401666628213
-14.217,0.5935714587100797
-14.2165,0.8267024029385348
-14.216,0.7992290593425889
-14.2155,0.825132497590195
-14.215,0.8243475449160251
-14.2145,0.8243475449160251
-14.214,0.8227776395676855
-14.2135,0.8219926868935156
-14.213,0.7866698165558709
-14.2125,0.4766135102587672
-14.212,0.4821081789779563
-14.2115,0.4821081789779563
-14.211,0.4789683682812768
-14.2105,0.4773984629329371
-14.21,0.6752065368237475
-14.2095,0.8290572609610445
-14.209,0.8274873556127047
-14.2085,0.8259174502643649
-14.208,0.8243475449160251
-14.2075,0.825132497590195
-14.207,0.8235625922418554
-14.2065,0.8219926868935156
-14.206,0.8219926868935156
-14.2055,0.8219926868935156
-14.205,0.8196378288710059
-14.2045,0.8204227815451758
-14.204,0.818852876196836
-14.2035,0.5817971685975314
-14.203,0.4475702613144815
-14.2025,0.4483552139886514
-14.202,0.450710072011161
-14.2015,0.4514950246853309
-14.201,0.4491401666628213
-14.2005,0.464054267472049
-14.2,0.8243475449160251
-14.1995,0.8055086807359481
-14.199,0.825132497590195
-14.1985,0.825132497590195
-14.198,0.8243475449160251
-14.1975,0.8235625922418554
-14.197,0.8227776395676855
-14.1965,0.8219926868935156
-14.196,0.5574636356982651
-14.1955,0.4789683682812768
-14.195,0.4821081789779563
-14.1945,0.4789683682812768
-14.194,0.4766135102587672
-14.1935,0.5535388723274157
-14.193,0.8274873556127047
-14.1925,0.8290572609610445
-14.192,0.8259174502643649
-14.1915,0.8267024029385348
-14.191,0.8243475449160251
-14.1905,0.8243475449160251
-14.19,0.8235625922418554
-14.1895,0.8235625922418554
-14.189,0.8219926868935156
-14.1885,0.8212077342193457
-14.188,0.8212077342193457
-14.1875,0.818852876196836
-14.187,0.7097444544872223
-14.1865,0.4452154032919718
-14.186,0.4467853086403116
-14.1855,0.4483552139886514
-14.185,0.4499251193369911
-14.1845,0.4499251193369911
-14.184,0.444430450617802
-14.1835,0.7034648330938632
-14.183,0.7960892486459095
-14.1825,0.8267024029385348
-14.182,0.8267024029385348
-14.1815,0.8243475449160251
-14.181,0.8243475449160251
-14.1805,0.8243475449160251
-14.18,0.8227776395676855
-14.1795,0.6712817734528981
-14.179,0.4766135102587672
-14.1785,0.4797533209554467
-14.178,0.4781834156071069
-14.1775,0.4758285575845973
-14.177,0.4742586522362575
-14.1765,0.7850999112075311
-14.176,0.8290572609610445
-14.1755,0.8274873556127047
-14.175,0.8267024029385348
-14.1745,0.8259174502643649
-14.174,0.825132497590195
-14.1735,0.8243475449160251
-14.173,0.8235625922418554
-14.1725,0.8227776395676855
-14.172,0.8212077342193457
-14.1715,0.8212077342193457
-14.171,0.8204227815451758
-14.1705,0.8164980181743264
-14.17,0.4616994094495394
-14.1695,0.444430450617802
-14.169,0.4475702613144815
-14.1685,0.4475702613144815
-14.168,0.4483552139886514
-14.1675,0.444430450617802
-14.167,0.5606034463949446
-14.1665,0.8274873556127047
-14.166,0.7992290593425889
-14.1655,0.8267024029385348
-14.165,0.8259174502643649
-14.1645,0.825132497590195
-14.164,0.825132497590195
-14.1635,0.8243475449160251
-14.163,0.7850999112075311
-14.1625,0.4734736995620876
-14.162,0.4773984629329371
-14.1615,0.4789683682812768
-14.161,0.4758285575845973
-14.1605,0.4742586522362575
-14.16,0.6650021520595391
-14.1595,0.8306271663093843
-14.159,0.8282723082868746
-14.1585,0.8282723082868746
-14.158,0.8274873556127047
-14.1575,0.8274873556127047
-14.157,0.8259174502643649
-14.1565,0.8243475449160251
-14.156,0.8235625922418554
-14.1555,0.8227776395676855
-14.155,0.8219926868935156
-14.1545,0.8219926868935156
-14.154,0.8204227815451758
-14.1535,0.5872918373167206
-14.153,0.444430450617802
-14.1525,0.4467853086403116
-14.152,0.4483552139886514
-14.1515,0.4499251193369911
-14.151,0.4475702613144815
-14.1505,0.4436454979436321
-14.15,0.8094334441067974
-14.1495,0.8000140120167588
-14.149,0.8282723082868746
-14.1485,0.8274873556127047
-14.148,0.8259174502643649
-14.1475,0.825132497590195
-14.147,0.8243475449160251
-14.1465,0.8235625922418554
-14.146,0.5558937303499253
-14.1455,0.4758285575845973
-14.145,0.4773984629329371
-14.1445,0.4758285575845973
-14.144,0.4734736995620876
-14.1435,0.537839818844018
-14.143,0.8298422136352144
-14.1425,0.8290572609610445
-14.142,0.8290572609610445
-14.1415,0.8282723082868746
-14.141,0.8267024029385348
-14.1405,0.8259174502643649
-14.14,0.8259174502643649
-14.1395,0.8243475449160251
-14.139,0.8235625922418554
-14.1385,0.8235625922418554
-14.138,0.8219926868935156
-14.1375,0.8212077342193457
-14.137,0.7128842651839018
-14.1365,0.4420755925952923
-14.136,0.4436454979436321
-14.1355,0.4452154032919718
-14.135,0.4460003559661417
-14.1345,0.4460003559661417
-14.134,0.4412906399211224
-14.1335,0.6799162528687668
-14.133,0.8047237280617782
-14.1325,0.8290572609610445
-14.132,0.8274873556127047
-14.1315,0.8267024029385348
-14.131,0.8259174502643649
-14.1305,0.8259174502643649
-14.13,0.8243475449160251
-14.1295,0.678346347520427
-14.129,0.4719037942137478
-14.1285,0.4758285575845973
-14.128,0.4734736995620876
-14.1275,0.4719037942137478
-14.127,0.4695489361912382
-14.1265,0.7811751478366816
-14.126,0.8298422136352144
-14.1255,0.8298422136352144
-14.125,0.8290572609610445
-14.1245,0.8274873556127047
-14.124,0.8274873556127047
-14.1235,0.8259174502643649
-14.123,0.8259174502643649
-14.1225,0.825132497590195
-14.122,0.8235625922418554
-14.1215,0.8227776395676855
-14.121,0.8219926868935156
-14.1205,0.8196378288710059
-14.12,0.4632693147978791
-14.1195,0.4420755925952923
-14.119,0.4436454979436321
-14.1185,0.4460003559661417
-14.118,0.4467853086403116
-14.1175,0.4420755925952923
-14.117,0.5558937303499253
-14.1165,0.8298422136352144
-14.116,0.8023688700392685
-14.1155,0.8290572609610445
-14.115,0.8282723082868746
-14.1145,0.8274873556127047
-14.114,0.8267024029385348
-14.1135,0.825132497590195
-14.113,0.7953042959717396
-14.1125,0.4679790308428985
-14.112,0.4750436049104274
-14.1115,0.4742586522362575
-14.111,0.4719037942137478
-14.1105,0.4703338888654081
-14.11,0.6650021520595391
-14.1095,0.8329820243318939
-14.109,0.8298422136352144
-14.1085,0.8298422136352144
-14.108,0.8290572609610445
-14.1075,0.8274873556127047
-14.107,0.8267024029385348
-14.1065,0.8259174502643649
-14.106,0.825132497590195
-14.1055,0.825132497590195
-14.105,0.8235625922418554
-14.1045,0.8227776395676855
-14.104,0.8219926868935156
-14.1035,0.5896466953392303
-14.103,0.4428605452694622
-14.1025,0.4452154032919718
-14.102,0.4467853086403116
-14.1015,0.4483552139886514
-14.101,0.4460003559661417
-14.1005,0.4405056872469525
-14.1,0.8047237280617782
-14.0995,0.8055086807359481
-14.099,0.8298422136352144
-14.0985,0.8282723082868746
-14.098,0.8282723082868746
-14.0975,0.8267024029385348
-14.097,0.8267024029385348
-14.0965,0.825132497590195
-14.096,0.5574636356982651
-14.0955,0.4742586522362575
-14.095,0.4773984629329371
-14.0945,0.4750436049104274
-14.094,0.4726887468879177
-14.0935,0.5394097241923578
-14.093,0.8306271663093843
-14.0925,0.8314121189835542
-14.092,0.8314121189835542
-14.0915,0.8290572609610445
-14.091,0.8290572609610445
-14.0905,0.8274873556127047
-14.09,0.8274873556127047
-14.0895,0.8259174502643649
-14.089,0.8259174502643649
-14.0885,0.8243475449160251
-14.088,0.8243475449160251
-14.0875,0.8227776395676855
-14.087,0.7223036972739405
-14.0865,0.4436454979436321
-14.086,0.4452154032919718
-14.0855,0.4475702613144815
-14.085,0.4483552139886514
-14.0845,0.4483552139886514
-14.084,0.444430450617802
-14.0835,0.6681419627562185
-14.083,0.8070785860842877
-14.0825,0.8306271663093843
-14.082,0.8290572609610445
-14.0815,0.8290572609610445
-14.081,0.8274873556127047
-14.0805,0.8267024029385348
-14.08,0.8259174502643649
-14.0795,0.6752065368237475
-14.079,0.4758285575845973
-14.0785,0.4781834156071069
-14.078,0.4773984629329371
-14.0775,0.4750436049104274
-14.077,0.4726887468879177
-14.0765,0.7803901951625117
-14.076,0.8321970716577241
-14.0755,0.8314121189835542
-14.075,0.8306271663093843
-14.0745,0.8290572609610445
-14.074,0.8282723082868746
-14.0735,0.8274873556127047
-14.073,0.8267024029385348
-14.0725,0.8259174502643649
-14.072,0.825132497590195
-14.0715,0.825132497590195
-14.071,0.8235625922418554
-14.0705,0.8227776395676855
-14.07,0.4750436049104274
-14.0695,0.4460003559661417
-14.069,0.4483552139886514
-14.0685,0.450710072011161
-14.068,0.4514950246853309
-14.0675,0.4475702613144815
-14.067,0.5354849608215084
-14.0665,0.8314121189835542
-14.066,0.8094334441067974
-14.0655,0.8290572609610445
-14.065,0.8298422136352144
-14.0645,0.8274873556127047
-14.064,0.8282723082868746
-14.0635,0.8267024029385348
-14.063,0.7937343906233998
-14.0625,0.4742586522362575
-14.062,0.4797533209554467
-14.0615,0.4797533209554467
-14.061,0.4773984629329371
-14.0605,0.4750436049104274
-14.06,0.6540128146211607
-14.0595,0.8321970716577241
-14.059,0.8321970716577241
-14.0585,0.8306271663093843
-14.058,0.8298422136352144
-14.0575,0.8290572609610445
-14.057,0.8282723082868746
-14.0565,0.8267024029385348
-14.056,0.8267024029385348
-14.0555,0.825132497590195
-14.055,0.8243475449160251
-14.0545,0.8235625922418554
-14.054,0.8235625922418554
-14.0535,0.598281174755099
-14.053,0.4460003559661417
-14.0525,0.4491401666628213
-14.052,0.450710072011161
-14.0515,0.4522799773595008
-14.051,0.450710072011161
-14.0505,0.444430450617802
-14.05,0.7937343906233998
-14.0495,0.8180679235226661
-14.049,0.8306271663093843
-14.0485,0.8290572609610445
-14.048,0.8282723082868746
-14.0475,0.8274873556127047
-14.047,0.8267024029385348
-14.0465,0.8259174502643649
-14.046,0.5598184937207747
-14.0455,0.4773984629329371
-14.045,0.4797533209554467
-14.0445,0.4781834156071069
-14.044,0.4758285575845973
-14.0435,0.5370548661698481
-14.043,0.8329820243318939
-14.0425,0.8329820243318939
-14.042,0.8314121189835542
-14.0415,0.8290572609610445
-14.041,0.8298422136352144
-14.0405,0.8282723082868746
-14.04,0.8282723082868746
-14.0395,0.8267024029385348
-14.039,0.8259174502643649
-14.0385,0.825132497590195
-14.038,0.8243475449160251
-14.0375,0.8243475449160251
-14.037,0.7262284606447899
-14.0365,0.4452154032919718
-14.036,0.4483552139886514
-14.0355,0.450710072011161
-14.035,0.450710072011161
-14.0345,0.4514950246853309
-14.034,0.4452154032919718
-14.0335,0.6618623413628595
-14.033,0.8031538227134384
-14.0325,0.8306271663093843
-14.032,0.8298422136352144
-14.0315,0.8298422136352144
-14.031,0.8282723082868746
-14.0305,0.8290572609610445
-14.03,0.8267024029385348
-14.0295,0.6799162528687668
-14.029,0.4758285575845973
-14.0285,0.4797533209554467
-14.028,0.4789683682812768
-14.0275,0.4766135102587672
-14.027,0.4742586522362575
-14.0265,0.7772503844658323
-14.026,0.8337669770060638
-14.0255,0.8314121189835542
-14.025,0.8306271663093843
-14.0245,0.8298422136352144
-14.024,0.8290572609610445
-14.0235,0.8282723082868746
-14.023,0.8267024029385348
-14.0225,0.8274873556127047
-14.022,0.825132497590195
-14.0215,0.825132497590195
-14.021,0.8243475449160251
-14.0205,0.8227776395676855
-14.02,0.4734736995620876
-14.0195,0.4452154032919718
-14.019,0.4475702613144815
-14.0185,0.4483552139886514
-14.018,0.4499251193369911
-14.0175,0.4467853086403116
-14.017,0.5323451501248289
-14.0165,0.8321970716577241
-14.016,0.8031538227134384
-14.0155,0.8306271663093843
-14.015,0.8290572609610445
-14.0145,0.8290572609610445
-14.014,0.8282723082868746
-14.0135,0.8274873556127047
-14.013,0.7953042959717396
-14.0125,0.4742586522362575
-14.012,0.4805382736296165
-14.0115,0.4797533209554467
-14.011,0.4797533209554467
-14.0105,0.4766135102587672
-14.01,0.6555827199695005
-14.0095,0.8329820243318939
-14.009,0.8329820243318939
-14.0085,0.8306271663093843
-14.008,0.8298422136352144
-14.0075,0.8298422136352144
-14.007,0.8282723082868746
-14.0065,0.8274873556127047
-14.006,0.8267024029385348
-14.0055,0.8259174502643649
-14.005,0.8259174502643649
-14.0045,0.8235625922418554
-14.004,0.8235625922418554
-14.0035,0.5951413640584194
-14.003,0.4460003559661417
-14.0025,0.4475702613144815
-14.002,0.4499251193369911
-14.0015,0.4514950246853309
-14.001,0.4491401666628213
-14.0005,0.4428605452694622
-14,0.7937343906233998
-13.9995,0.8062936334101178
-13.999,0.8306271663093843
-13.9985,0.8298422136352144
-13.998,0.8290572609610445
-13.9975,0.8282723082868746
-13.997,0.8274873556127047
-13.9965,0.8259174502643649
-13.996,0.5621733517432843
-13.9955,0.4750436049104274
-13.995,0.4789683682812768
-13.9945,0.4758285575845973
-13.994,0.4734736995620876
-13.9935,0.5307752447764891
-13.993,0.8353368823544036
-13.9925,0.8329820243318939
-13.992,0.8314121189835542
-13.9915,0.8314121189835542
-13.991,0.8298422136352144
-13.9905,0.8290572609610445
-13.99,0.8282723082868746
-13.9895,0.8267024029385348
-13.989,0.8267024029385348
-13.9885,0.8259174502643649
-13.988,0.825132497590195
-13.9875,0.8243475449160251
-13.987,0.7238736026222802
-13.9865,0.4436454979436321
-13.986,0.4460003559661417
-13.9855,0.4483552139886514
-13.985,0.4491401666628213
-13.9845,0.4491401666628213
-13.984,0.4436454979436321
-13.9835,0.6626472940370294
-13.983,0.798444106668419
-13.9825,0.8314121189835542
-13.982,0.8306271663093843
-13.9815,0.8298422136352144
-13.981,0.8282723082868746
-13.9805,0.8274873556127047
-13.98,0.8274873556127047
-13.9795,0.6791313001945969
-13.979,0.4711188415395779
-13.9785,0.4734736995620876
-13.978,0.4734736995620876
-13.9775,0.4711188415395779
-13.977,0.4679790308428985
-13.9765,0.7686159050499635
-13.976,0.8337669770060638
-13.9755,0.8329820243318939
-13.975,0.8314121189835542
-13.9745,0.8298422136352144
-13.974,0.8298422136352144
-13.9735,0.8290572609610445
-13.973,0.8274873556127047
-13.9725,0.8274873556127047
-13.972,0.8259174502643649
-13.9715,0.8259174502643649
-13.971,0.8243475449160251
-13.9705,0.8227776395676855
-13.97,0.4656241728203888
-13.9695,0.4350110185277634
-13.969,0.437365876550273
-13.9685,0.4389357818986128
-13.968,0.4412906399211224
-13.9675,0.4389357818986128
-13.967,0.52449562338313
-13.9665,0.8329820243318939
-13.966,0.8047237280617782
-13.9655,0.8306271663093843
-13.965,0.8306271663093843
-13.9645,0.8298422136352144
-13.964,0.8282723082868746
-13.9635,0.8282723082868746
-13.963,0.7968742013200794
-13.9625,0.4687639835170683
-13.962,0.4742586522362575
-13.9615,0.4734736995620876
-13.961,0.4719037942137478
-13.9605,0.4703338888654081
-13.96,0.6532278619469908
-13.9595,0.8345519296802337
-13.959,0.8329820243318939
-13.9585,0.8321970716577241
-13.958,0.8306271663093843
-13.9575,0.8314121189835542
-13.957,0.8298422136352144
-13.9565,0.8282723082868746
-13.956,0.8282723082868746
-13.9555,0.8267024029385348
-13.955,0.8259174502643649
-13.9545,0.8259174502643649
-13.954,0.8243475449160251
-13.9535,0.5959263167325893
-13.953,0.4428605452694622
-13.9525,0.4452154032919718
-13.952,0.4460003559661417
-13.9515,0.4475702613144815
-13.951,0.4467853086403116
-13.9505,0.4405056872469525
-13.95,0.7913795326008901
-13.9495,0.8078635387584576
-13.949,0.8329820243318939
-13.9485,0.8314121189835542
-13.948,0.8306271663093843
-13.9475,0.8290572609610445
-13.947,0.8290572609610445
-13.9465,0.8282723082868746
-13.946,0.5613883990691145
-13.9455,0.4758285575845973
-13.945,0.4781834156071069
-13.9445,0.4766135102587672
-13.944,0.4742586522362575
-13.9435,0.5268504814056396
-13.943,0.8361218350285734
-13.9425,0.8345519296802337
-13.942,0.8321970716577241
-13.9415,0.8314121189835542
-13.941,0.8306271663093843
-13.9405,0.8306271663093843
-13.94,0.8282723082868746
-13.9395,0.8282723082868746
-13.939,0.8274873556127047
-13.9385,0.8267024029385348
-13.938,0.8259174502643649
-13.9375,0.825132497590195
-13.937,0.7277983659931296
-13.9365,0.4420755925952923
-13.936,0.4452154032919718
-13.9355,0.4475702613144815
-13.935,0.4483552139886514
-13.9345,0.4483552139886514
-13.934,0.4428605452694622
-13.9335,0.6665720574078787
-13.933,0.8062936334101178
-13.9325,0.8321970716577241
-13.932,0.8314121189835542
-13.9315,0.8306271663093843
-13.931,0.8298422136352144
-13.9305,0.8298422136352144
-13.93,0.8282723082868746
-13.9295,0.6799162528687668
-13.929,0.4734736995620876
-13.9285,0.4773984629329371
-13.928,0.4750436049104274
-13.9275,0.4726887468879177
-13.927,0.4719037942137478
-13.9265,0.7623362836566044
-13.926,0.8345519296802337
-13.9255,0.8337669770060638
-13.925,0.8321970716577241
-13.9245,0.8321970716577241
-13.924,0.8306271663093843
-13.9235,0.8306271663093843
-13.923,0.8290572609610445
-13.9225,0.8282723082868746
-13.922,0.8274873556127047
-13.9215,0.8267024029385348
-13.921,0.8259174502643649
-13.9205,0.825132497590195
-13.92,0.4742586522362575
-13.9195,0.4436454979436321
-13.919,0.444430450617802
-13.9185,0.4460003559661417
-13.918,0.4475702613144815
-13.9175,0.4436454979436321
-13.917,0.5252805760572998
-13.9165,0.8337669770060638
-13.916,0.7968742013200794
-13.9155,0.8321970716577241
-13.915,0.8314121189835542
-13.9145,0.8306271663093843
-13.914,0.8290572609610445
-13.9135,0.8290572609610445
-13.913,0.8031538227134384
-13.9125,0.4695489361912382
-13.912,0.4758285575845973
-13.9115,0.4742586522362575
-13.911,0.4734736995620876
-13.9105,0.4711188415395779
-13.91,0.6430234771827823
-13.9095,0.8353368823544036
-13.909,0.8329820243318939
-13.9085,0.8329820243318939
-13.908,0.8321970716577241
-13.9075,0.8306271663093843
-13.907,0.8306271663093843
-13.9065,0.8298422136352144
-13.906,0.8290572609610445
-13.9055,0.8282723082868746
-13.905,0.8274873556127047
-13.9045,0.8267024029385348
-13.904,0.8259174502643649
-13.9035,0.5943564113842495
-13.903,0.4412906399211224
-13.9025,0.444430450617802
-13.902,0.4452154032919718
-13.9015,0.4460003559661417
-13.901,0.444430450617802
-13.9005,0.4389357818986128
-13.9,0.7968742013200794
-13.8995,0.8078635387584576
-13.899,0.8321970716577241
-13.8985,0.8314121189835542
-13.898,0.8306271663093843
-13.8975,0.8298422136352144
-13.897,0.8298422136352144
-13.8965,0.8290572609610445
-13.896,0.5653131624399639
-13.8955,0.4726887468879177
-13.895,0.4758285575845973
-13.8945,0.4734736995620876
-13.894,0.4719037942137478
-13.8935,0.5095815225739022
-13.893,0.8369067877027433
-13.8925,0.8345519296802337
-13.892,0.8329820243318939
-13.8915,0.8329820243318939
-13.891,0.8314121189835542
-13.8905,0.8314121189835542
-13.89,0.8306271663093843
-13.8895,0.8298422136352144
-13.889,0.8282723082868746
-13.8885,0.8274873556127047
-13.888,0.8267024029385348
-13.8875,0.8259174502643649
-13.887,0.712099312509732
-13.8865,0.4428605452694622
-13.886,0.4436454979436321
-13.8855,0.4460003559661417
-13.885,0.4467853086403116
-13.8845,0.4475702613144815
-13.884,0.4420755925952923
-13.8835,0.698755117048844
-13.883,0.8102183967809673
-13.8825,0.8329820243318939
-13.882,0.8329820243318939
-13.8815,0.8314121189835542
-13.881,0.8306271663093843
-13.8805,0.8298422136352144
-13.88,0.8290572609610445
-13.8795,0.6948303536779945
-13.879,0.4758285575845973
-13.8785,0.4797533209554467
-13.878,0.4781834156071069
-13.8775,0.4758285575845973
-13.877,0.4742586522362575
-13.8765,0.7270134133189597
-13.876,0.8353368823544036
-13.8755,0.8337669770060638
-13.875,0.8329820243318939
-13.8745,0.8329820243318939
-13.874,0.8321970716577241
-13.8735,0.8306271663093843
-13.873,0.8306271663093843
-13.8725,0.8282723082868746
-13.872,0.8282723082868746
-13.8715,0.8274873556127047
-13.871,0.8267024029385348
-13.8705,0.8062936334101178
-13.87,0.4514950246853309
-13.8695,0.4467853086403116
-13.869,0.4483552139886514
-13.8685,0.4499251193369911
-13.868,0.450710072011161
-13.8675,0.4452154032919718
-13.867,0.6367438557894233
-13.8665,0.8337669770060638
-13.866,0.8141431601518168
-13.8655,0.8314121189835542
-13.865,0.8329820243318939
-13.8645,0.8306271663093843
-13.864,0.8298422136352144
-13.8635,0.8290572609610445
-13.863,0.8243475449160251
-13.8625,0.4930975164163347
-13.862,0.4852479896746359
-13.8615,0.4860329423488058
-13.861,0.4836780843262961
-13.8605,0.4813232263037864
-13.86,0.4813232263037864
-13.8595,0.8274873556127047
-13.859,0.8361218350285734
-13.8585,0.8329820243318939
-13.858,0.8329820243318939
-13.8575,0.8321970716577241
-13.857,0.8314121189835542
-13.8565,0.8306271663093843
-13.856,0.8290572609610445
-13.8555,0.8290572609610445
-13.855,0.8282723082868746
-13.8545,0.8274873556127047
-13.854,0.672066726127068
-13.8535,0.4499251193369911
-13.853,0.4514950246853309
-13.8525,0.4530649300336707
-13.852,0.4546348353820104
-13.8515,0.450710072011161
-13.851,0.5480442036082265
-13.8505,0.8337669770060638
-13.85,0.8345519296802337
-13.8495,0.8149281128259867
-13.849,0.8306271663093843
-13.8485,0.8306271663093843
-13.848,0.8306271663093843
-13.8475,0.8282723082868746
-13.847,0.8282723082868746
-13.8465,0.8282723082868746
-13.846,0.598281174755099
-13.8455,0.504871806528883
-13.845,0.504871806528883
-13.8445,0.5017319958322034
-13.844,0.4985921851355239
-13.8435,0.5205708600122806
-13.843,0.8329820243318939
-13.8425,0.8314121189835542
-13.842,0.8314121189835542
-13.8415,0.8306271663093843
-13.841,0.8306271663093843
-13.8405,0.8290572609610445
-13.84,0.8282723082868746
-13.8395,0.8267024029385348
-13.839,0.8267024029385348
-13.8385,0.825132497590195
-13.838,0.825132497590195
-13.8375,0.8243475449160251
-13.837,0.7293682713414694
-13.8365,0.4530649300336707
-13.836,0.4554197880561803
-13.8355,0.4554197880561803
-13.835,0.45777464607869
-13.8345,0.4562047407303502
-13.834,0.450710072011161
-13.8335,0.6657871047337089
-13.833,0.8094334441067974
-13.8325,0.8314121189835542
-13.832,0.8306271663093843
-13.8315,0.8290572609610445
-13.831,0.8290572609610445
-13.8305,0.8282723082868746
-13.83,0.8274873556127047
-13.8295,0.6909055903071452
-13.829,0.4766135102587672
-13.8285,0.4805382736296165
-13.828,0.4789683682812768
-13.8275,0.4766135102587672
-13.827,0.4742586522362575
-13.8265,0.7482071355215466
-13.826,0.8329820243318939
-13.8255,0.8321970716577241
-13.825,0.8306271663093843
-13.8245,0.8306271663093843
-13.824,0.8298422136352144
-13.8235,0.8282723082868746
-13.823,0.8274873556127047
-13.8225,0.8274873556127047
-13.822,0.8259174502643649
-13.8215,0.8259174502643649
-13.821,0.8235625922418554
-13.8205,0.8227776395676855
-13.82,0.4687639835170683
-13.8195,0.4420755925952923
-13.819,0.444430450617802
-13.8185,0.4452154032919718
-13.818,0.4467853086403116
-13.8175,0.4420755925952923
-13.817,0.537839818844018
-13.8165,0.8321970716577241
-13.816,0.7992290593425889
-13.8155,0.8306271663093843
-13.815,0.8306271663093843
-13.8145,0.8298422136352144
-13.814,0.8274873556127047
-13.8135,0.8282723082868746
-13.813,0.8039387753876083
-13.8125,0.4687639835170683
-13.812,0.4742586522362575
-13.8115,0.4734736995620876
-13.811,0.4719037942137478
-13.8105,0.4695489361912382
-13.81,0.6383137611377629
-13.8095,0.8337669770060638
-13.809,0.8321970716577241
-13.8085,0.8314121189835542
-13.808,0.8321970716577241
-13.8075,0.8298422136352144
-13.807,0.8298422136352144
-13.8065,0.8290572609610445
-13.806,0.8282723082868746
-13.8055,0.8267024029385348
-13.805,0.8259174502643649
-13.8045,0.825132497590195
-13.804,0.8243475449160251
-13.8035,0.5927865060359098
-13.803,0.4389357818986128
-13.8025,0.4397207345727827
-13.802,0.4428605452694622
-13.8015,0.4436454979436321
-13.801,0.4420755925952923
-13.8005,0.4357959712019333
-13.8,0.7992290593425889
-13.7995,0.8007989646909287
-13.799,0.8321970716577241
-13.7985,0.8306271663093843
-13.798,0.8306271663093843
-13.7975,0.8290572609610445
-13.797,0.8282723082868746
-13.7965,0.8282723082868746
-13.796,0.5660981151141338
-13.7955,0.4711188415395779
-13.795,0.4734736995620876
-13.7945,0.4703338888654081
-13.794,0.4687639835170683
-13.7935,0.5087965698997323
-13.793,0.8353368823544036
-13.7925,0.8337669770060638
-13.792,0.8329820243318939
-13.7915,0.8329820243318939
-13.791,0.8314121189835542
-13.7905,0.8306271663093843
-13.79,0.8290572609610445
-13.7895,0.8282723082868746
-13.789,0.8274873556127047
-13.7885,0.8267024029385348
-13.788,0.8259174502643649
-13.7875,0.825132497590195
-13.787,0.7215187445997706
-13.7865,0.4381508292244429
-13.786,0.4397207345727827
-13.7855,0.4420755925952923
-13.785,0.4428605452694622
-13.7845,0.4436454979436321
-13.784,0.4381508292244429
-13.7835,0.6744215841495776
-13.783,0.8031538227134384
-13.7825,0.8321970716577241
-13.782,0.8321970716577241
-13.7815,0.8306271663093843
-13.781,0.8298422136352144
-13.7805,0.8298422136352144
-13.78,0.8282723082868746
-13.7795,0.6854109215879559
-13.779,0.4687639835170683
-13.7785,0.4734736995620876
-13.778,0.4719037942137478
-13.7775,0.4695489361912382
-13.777,0.4671940781687286
-13.7765,0.7568416149374153
-13.776,0.8345519296802337
-13.7755,0.8329820243318939
-13.775,0.8329820243318939
-13.7745,0.8314121189835542
-13.774,0.8306271663093843
-13.7735,0.8298422136352144
-13.773,0.8290572609610445
-13.7725,0.8282723082868746
-13.772,0.8274873556127047
-13.7715,0.8267024029385348
-13.771,0.8259174502643649
-13.7705,0.8243475449160251
-13.77,0.4664091254945587
-13.7695,0.4381508292244429
-13.769,0.4412906399211224
-13.7685,0.4428605452694622
-13.768,0.4436454979436321
-13.7675,0.4397207345727827
-13.767,0.5425495348890373
-13.7665,0.8337669770060638
-13.766,0.8055086807359481
-13.7655,0.8321970716577241
-13.765,0.8314121189835542
-13.7645,0.8306271663093843
-13.764,0.8306271663093843
-13.7635,0.8290572609610445
-13.763,0.8094334441067974
-13.7625,0.4671940781687286
-13.762,0.4742586522362575
-13.7615,0.4719037942137478
-13.761,0.4711188415395779
-13.7605,0.4687639835170683
-13.76,0.6422385245086124
-13.7595,0.8337669770060638
-13.759,0.8353368823544036
-13.7585,0.8321970716577241
-13.758,0.8329820243318939
-13.7575,0.8314121189835542
-13.757,0.8298422136352144
-13.7565,0.8314121189835542
-13.756,0.8290572609610445
-13.7555,0.8282723082868746
-13.755,0.8274873556127047
-13.7545,0.8267024029385348
-13.754,0.8267024029385348
-13.7535,0.5990661274292689
-13.753,0.4397207345727827
-13.7525,0.4420755925952923
-13.752,0.4436454979436321
-13.7515,0.4452154032919718
-13.751,0.4428605452694622
-13.7505,0.4365809238761031
-13.75,0.7976591539942491
-13.7495,0.8055086807359481
-13.749,0.8329820243318939
-13.7485,0.8321970716577241
-13.748,0.8321970716577241
-13.7475,0.8298422136352144
-13.747,0.8298422136352144
-13.7465,0.8290572609610445
-13.746,0.564528209765794
-13.7455,0.4711188415395779
-13.745,0.4734736995620876
-13.7445,0.4719037942137478
-13.744,0.4695489361912382
-13.7435,0.5174310493156011
-13.743,0.8369067877027433
-13.7425,0.8353368823544036
-13.742,0.8337669770060638
-13.7415,0.8337669770060638
-13.741,0.8321970716577241
-13.7405,0.8314121189835542
-13.74,0.8298422136352144
-13.7395,0.8298422136352144
-13.739,0.8290572609610445
-13.7385,0.8282723082868746
-13.738,0.8274873556127047
-13.7375,0.8267024029385348
-13.737,0.7285833186672995
-13.7365,0.4397207345727827
-13.736,0.4420755925952923
-13.7355,0.4428605452694622
-13.735,0.444430450617802
-13.7345,0.444430450617802
-13.734,0.4397207345727827
-13.7335,0.6657871047337089
-13.733,0.8047237280617782
-13.7325,0.8337669770060638
-13.732,0.8329820243318939
-13.7315,0.8321970716577241
-13.731,0.8306271663093843
-13.7305,0.8306271663093843
-13.73,0.8290572609610445
-13.7295,0.6814861582171066
-13.729,0.4687639835170683
-13.7285,0.4726887468879177
-13.728,0.4719037942137478
-13.7275,0.4695489361912382
-13.727,0.4679790308428985
-13.7265,0.765476094353284
-13.726,0.8369067877027433
-13.7255,0.8337669770060638
-13.725,0.8345519296802337
-13.7245,0.8321970716577241
-13.724,0.8321970716577241
-13.7235,0.8314121189835542
-13.723,0.8306271663093843
-13.7225,0.8290572609610445
-13.722,0.8290572609610445
-13.7215,0.8274873556127047
-13.721,0.8274873556127047
-13.7205,0.8259174502643649
-13.72,0.4726887468879177
-13.7195,0.4389357818986128
-13.719,0.4420755925952923
-13.7185,0.4428605452694622
-13.718,0.444430450617802
-13.7175,0.4405056872469525
-13.717,0.5307752447764891
-13.7165,0.8345519296802337
-13.716,0.8039387753876083
-13.7155,0.8345519296802337
-13.715,0.8321970716577241
-13.7145,0.8321970716577241
-13.714,0.8306271663093843
-13.7135,0.8306271663093843
-13.713,0.8094334441067974
-13.7125,0.4679790308428985
-13.712,0.4726887468879177
-13.7115,0.4734736995620876
-13.711,0.4711188415395779
-13.7105,0.4687639835170683
-13.71,0.645378335205292
-13.7095,0.8353368823544036
-13.709,0.8361218350285734
-13.7085,0.8337669770060638
-13.708,0.8337669770060638
-13.7075,0.8321970716577241
-13.707,0.8321970716577241
-13.7065,0.8306271663093843
-13.706,0.8298422136352144
-13.7055,0.8290572609610445
-13.705,0.8282723082868746
-13.7045,0.8274873556127047
-13.704,0.8267024029385348
-13.7035,0.6022059381259484
-13.703,0.4405056872469525
-13.7025,0.4420755925952923
-13.702,0.4436454979436321
-13.7015,0.4452154032919718
-13.701,0.4436454979436321
-13.7005,0.437365876550273
-13.7,0.7937343906233998
-13.6995,0.8055086807359481
-13.699,0.8337669770060638
-13.6985,0.8337669770060638
-13.698,0.8321970716577241
-13.6975,0.8314121189835542
-13.697,0.8314121189835542
-13.6965,0.8298422136352144
-13.696,0.5621733517432843
-13.6955,0.4719037942137478
-13.695,0.4734736995620876
-13.6945,0.4719037942137478
-13.694,0.4695489361912382
-13.6935,0.5166460966414312
-13.693,0.8384766930510831
-13.6925,0.8353368823544036
-13.692,0.8361218350285734
-13.6915,0.8337669770060638
-13.691,0.8337669770060638
-13.6905,0.8321970716577241
-13.69,0.8306271663093843
-13.6895,0.8314121189835542
-13.689,0.8298422136352144
-13.6885,0.8290572609610445
-13.688,0.8282723082868746
-13.6875,0.8274873556127047
-13.687,0.7364328454089983
-13.6865,0.4381508292244429
-13.686,0.4412906399211224
-13.6855,0.4428605452694622
-13.685,0.444430450617802
-13.6845,0.4452154032919718
-13.684,0.4397207345727827
-13.6835,0.6477331932278015
-13.683,0.8078635387584576
-13.6825,0.8345519296802337
-13.682,0.8345519296802337
-13.6815,0.8329820243318939
-13.681,0.8321970716577241
-13.6805,0.8321970716577241
-13.68,0.8306271663093843
-13.6795,0.6877657796104656
-13.679,0.4703338888654081
-13.6785,0.4734736995620876
-13.678,0.4726887468879177
-13.6775,0.4711188415395779
-13.677,0.4687639835170683
-13.6765,0.7607663783082647
-13.676,0.8369067877027433
-13.6755,0.8353368823544036
-13.675,0.8345519296802337
-13.6745,0.8337669770060638
-13.674,0.8329820243318939
-13.6735,0.8314121189835542
-13.673,0.8321970716577241
-13.6725,0.8306271663093843
-13.672,0.8290572609610445
-13.6715,0.8290572609610445
-13.671,0.8282723082868746
-13.6705,0.8274873556127047
-13.67,0.4797533209554467
-13.6695,0.4412906399211224
-13.669,0.4412906399211224
-13.6685,0.4436454979436321
-13.668,0.4452154032919718
-13.6675,0.4420755925952923
-13.667,0.5158611439672613
-13.6665,0.8361218350285734
-13.666,0.8062936334101178
-13.6655,0.8345519296802337
-13.665,0.8337669770060638
-13.6645,0.8329820243318939
-13.664,0.8321970716577241
-13.6635,0.8306271663093843
-13.663,0.8117883021293071
-13.6625,0.4679790308428985
-13.662,0.4726887468879177
-13.6615,0.4726887468879177
-13.661,0.4711188415395779
-13.6605,0.4687639835170683
-13.66,0.6359589031152534
-13.6595,0.8369067877027433
-13.659,0.8353368823544036
-13.6585,0.8345519296802337
-13.658,0.8337669770060638
-13.6575,0.8329820243318939
-13.657,0.8329820243318939
-13.6565,0.8321970716577241
-13.656,0.8306271663093843
-13.6555,0.8306271663093843
-13.655,0.8290572609610445
-13.6545,0.8282723082868746
-13.654,0.8274873556127047
-13.6535,0.604560796148458
-13.653,0.4412906399211224
-13.6525,0.4428605452694622
-13.652,0.444430450617802
-13.6515,0.4467853086403116
-13.651,0.444430450617802
-13.6505,0.4389357818986128
-13.65,0.7898096272525503
-13.6495,0.8094334441067974
-13.649,0.8353368823544036
-13.6485,0.8345519296802337
-13.648,0.8337669770060638
-13.6475,0.8321970716577241
-13.647,0.8314121189835542
-13.6465,0.8306271663093843
-13.646,0.5676680204624736
-13.6455,0.4734736995620876
-13.645,0.4750436049104274
-13.6445,0.4734736995620876
-13.644,0.4719037942137478
-13.6435,0.5166460966414312
-13.643,0.8400465983994229
-13.6425,0.8369067877027433
-13.642,0.8353368823544036
-13.6415,0.8353368823544036
-13.641,0.8337669770060638
-13.6405,0.8329820243318939
-13.64,0.8321970716577241
-13.6395,0.8314121189835542
-13.639,0.8306271663093843
-13.6385,0.8290572609610445
-13.638,0.8282723082868746
-13.6375,0.8274873556127047
-13.637,0.7277983659931296
-13.6365,0.4412906399211224
-13.636,0.4436454979436321
-13.6355,0.444430450617802
-13.635,0.4467853086403116
-13.6345,0.4475702613144815
-13.634,0.4428605452694622
-13.6335,0.6555827199695005
-13.633,0.8039387753876083
-13.6325,0.8361218350285734
-13.632,0.8345519296802337
-13.6315,0.8329820243318939
-13.631,0.8329820243318939
-13.6305,0.8321970716577241
-13.63,0.8306271663093843
-13.6295,0.6877657796104656
-13.629,0.4758285575845973
-13.6285,0.4797533209554467
-13.628,0.4773984629329371
-13.6275,0.4758285575845973
-13.627,0.4726887468879177
-13.6265,0.7607663783082647
-13.626,0.8369067877027433
-13.6255,0.8353368823544036
-13.625,0.8345519296802337
-13.6245,0.8337669770060638
-13.624,0.8329820243318939
-13.6235,0.8321970716577241
-13.623,0.8314121189835542
-13.6225,0.8306271663093843
-13.622,0.8298422136352144
-13.6215,0.8290572609610445
-13.621,0.8282723082868746
-13.6205,0.8267024029385348
-13.62,0.4805382736296165
-13.6195,0.4452154032919718
-13.619,0.4483552139886514
-13.6185,0.4499251193369911
-13.618,0.4514950246853309
-13.6175,0.4475702613144815
-13.617,0.5299902921023192
-13.6165,0.8361218350285734
-13.616,0.8062936334101178
-13.6155,0.8345519296802337
-13.615,0.8337669770060638
-13.6145,0.8329820243318939
-13.614,0.8329820243318939
-13.6135,0.8306271663093843
-13.613,0.8133582074776469
-13.6125,0.4742586522362575
-13.612,0.4805382736296165
-13.6115,0.4797533209554467
-13.611,0.4773984629329371
-13.6105,0.4750436049104274
-13.61,0.6485181459019714
-13.6095,0.8361218350285734
-13.609,0.8361218350285734
-13.6085,0.8345519296802337
-13.608,0.8337669770060638
-13.6075,0.8329820243318939
-13.607,0.8321970716577241
-13.6065,0.8314121189835542
-13.606,0.8306271663093843
-13.6055,0.8298422136352144
-13.605,0.8298422136352144
-13.6045,0.8282723082868746
-13.604,0.8267024029385348
-13.6035,0.6092705121934774
-13.603,0.4475702613144815
-13.6025,0.4499251193369911
-13.602,0.4514950246853309
-13.6015,0.4530649300336707
-13.601,0.4514950246853309
-13.6005,0.4452154032919718
-13.6,0.7874547692300407
-13.5995,0.8078635387584576
-13.599,0.8337669770060638
-13.5985,0.8337669770060638
-13.598,0.8321970716577241
-13.5975,0.8321970716577241
-13.597,0.8314121189835542
-13.5965,0.8298422136352144
-13.596,0.5763024998783423
-13.5955,0.4789683682812768
-13.595,0.4821081789779563
-13.5945,0.4797533209554467
-13.594,0.4773984629329371
-13.5935,0.5190009546639408
-13.593,0.8376917403769132
-13.5925,0.8369067877027433
-13.592,0.8353368823544036
-13.5915,0.8329820243318939
-13.591,0.8337669770060638
-13.5905,0.8314121189835542
-13.59,0.8306271663093843
-13.5895,0.8298422136352144
-13.589,0.8290572609610445
-13.5885,0.8290572609610445
-13.588,0.8274873556127047
-13.5875,0.8267024029385348
-13.587,0.7348629400606586
-13.5865,0.4475702613144815
-13.586,0.4499251193369911
-13.5855,0.4514950246853309
-13.585,0.4538498827078405
-13.5845,0.4538498827078405
-13.584,0.4483552139886514
-13.5835,0.6540128146211607
-13.583,0.8070785860842877
-13.5825,0.8337669770060638
-13.582,0.8329820243318939
-13.5815,0.8329820243318939
-13.581,0.8321970716577241
-13.5805,0.8314121189835542
-13.58,0.8290572609610445
-13.5795,0.6901206376329753
-13.579,0.4781834156071069
-13.5785,0.4821081789779563
-13.578,0.4805382736296165
-13.5775,0.4781834156071069
-13.577,0.4766135102587672
-13.5765,0.7646911416791141
-13.576,0.8353368823544036
-13.5755,0.8345519296802337
-13.575,0.8329820243318939
-13.5745,0.8329820243318939
-13.574,0.8321970716577241
-13.5735,0.8314121189835542
-13.573,0.8314121189835542
-13.5725,0.8298422136352144
-13.572,0.8290572609610445
-13.5715,0.8282723082868746
-13.571,0.8274873556127047
-13.5705,0.8259174502643649
-13.57,0.4883878003713154
-13.5695,0.4491401666628213
-13.569,0.450710072011161
-13.5685,0.4530649300336707
-13.568,0.4546348353820104
-13.5675,0.450710072011161
-13.567,0.52449562338313
-13.5665,0.8345519296802337
-13.566,0.8055086807359481
-13.5655,0.8337669770060638
-13.565,0.8329820243318939
-13.5645,0.8314121189835542
-13.564,0.8314121189835542
-13.5635,0.8298422136352144
-13.563,0.812573254803477
-13.5625,0.4766135102587672
-13.562,0.4836780843262961
-13.5615,0.4821081789779563
-13.561,0.4813232263037864
-13.5605,0.4789683682812768
-13.56,0.6359589031152534
-13.5595,0.8353368823544036
-13.559,0.8345519296802337
-13.5585,0.8345519296802337
-13.558,0.8337669770060638
-13.5575,0.8321970716577241
-13.557,0.8306271663093843
-13.5565,0.8306271663093843
-13.556,0.8298422136352144
-13.5555,0.8274873556127047
-13.555,0.8274873556127047
-13.5545,0.8274873556127047
-13.554,0.8259174502643649
-13.5535,0.6100554648676473
-13.553,0.4491401666628213
-13.5525,0.450710072011161
-13.552,0.4522799773595008
-13.5515,0.4538498827078405
-13.551,0.4530649300336707
-13.5505,0.4467853086403116
-13.55,0.7819601005108515
-13.5495,0.8070785860842877
-13.549,0.8337669770060638
-13.5485,0.8321970716577241
-13.548,0.8314121189835542
-13.5475,0.8306271663093843
-13.547,0.8306271663093843
-13.5465,0.8290572609610445
-13.546,0.5731626891816627
-13.5455,0.4828931316521262
-13.545,0.4836780843262961
-13.5445,0.4821081789779563
-13.544,0.4805382736296165
-13.5435,0.5190009546639408
-13.543,0.8376917403769132
-13.5425,0.8345519296802337
-13.542,0.8345519296802337
-13.5415,0.8329820243318939
-13.541,0.8321970716577241
-13.5405,0.8306271663093843
-13.54,0.8306271663093843
-13.5395,0.8290572609610445
-13.539,0.8282723082868746
-13.5385,0.8274873556127047
-13.538,0.8267024029385348
-13.5375,0.8267024029385348
-13.537,0.7348629400606586
-13.5365,0.4483552139886514
-13.536,0.4522799773595008
-13.5355,0.4530649300336707
-13.535,0.4546348353820104
-13.5345,0.4546348353820104
-13.534,0.4491401666628213
-13.5335,0.6547977672953306
-13.533,0.8031538227134384
-13.5325,0.8337669770060638
-13.532,0.8314121189835542
-13.5315,0.8314121189835542
-13.531,0.8314121189835542
-13.5305,0.8306271663093843
-13.53,0.8290572609610445
-13.5295,0.6964002590263343
-13.529,0.4813232263037864
-13.5285,0.4836780843262961
-13.528,0.4836780843262961
-13.5275,0.4813232263037864
-13.527,0.4797533209554467
-13.5265,0.759196472959925
-13.526,0.8353368823544036
-13.5255,0.8337669770060638
-13.525,0.8321970716577241
-13.5245,0.8329820243318939
-13.524,0.8314121189835542
-13.5235,0.8298422136352144
-13.523,0.8306271663093843
-13.5225,0.8290572609610445
-13.522,0.8282723082868746
-13.5215,0.8267024029385348
-13.521,0.8267024029385348
-13.5205,0.825132497590195
-13.52,0.4899577057196551
-13.5195,0.450710072011161
-13.519,0.4530649300336707
-13.5185,0.4538498827078405
-13.518,0.4554197880561803
-13.5175,0.4522799773595008
-13.517,0.5292053394281493
-13.5165,0.8345519296802337
-13.516,0.8039387753876083
-13.5155,0.8321970716577241
-13.515,0.8306271663093843
-13.5145,0.8314121189835542
-13.514,0.8298422136352144
-13.5135,0.8290572609610445
-13.513,0.812573254803477
-13.5125,0.4773984629329371
-13.512,0.484463037000466
-13.5115,0.4836780843262961
-13.511,0.4821081789779563
-13.5105,0.4797533209554467
-13.51,0.6383137611377629
-13.5095,0.8345519296802337
-13.509,0.8329820243318939
-13.5085,0.8329820243318939
-13.508,0.8321970716577241
-13.5075,0.8314121189835542
-13.507,0.8306271663093843
-13.5065,0.8290572609610445
-13.506,0.8290572609610445
-13.5055,0.8274873556127047
-13.505,0.8274873556127047
-13.5045,0.8259174502643649
-13.504,0.8259174502643649
-13.5035,0.611625370215987
-13.503,0.450710072011161
-13.5025,0.4514950246853309
-13.502,0.4538498827078405
-13.5015,0.4546348353820104
-13.501,0.4522799773595008
-13.5005,0.4475702613144815
-13.5,0.7835300058591913
-13.4995,0.8055086807359481
-13.499,0.8321970716577241
-13.4985,0.8321970716577241
-13.498,0.8306271663093843
-13.4975,0.8298422136352144
-13.497,0.8290572609610445
-13.4965,0.8274873556127047
-13.496,0.5747325945300025
-13.4955,0.4797533209554467
-13.495,0.4828931316521262
-13.4945,0.4797533209554467
-13.494,0.4781834156071069
-13.4935,0.5182160019897709
-13.493,0.8361218350285734
-13.4925,0.8337669770060638
-13.492,0.8329820243318939
-13.4915,0.8321970716577241
-13.491,0.8314121189835542
-13.4905,0.8306271663093843
-13.49,0.8298422136352144
-13.4895,0.8290572609610445
-13.489,0.8282723082868746
-13.4885,0.8267024029385348
-13.488,0.8259174502643649
-13.4875,0.825132497590195
-13.487,0.7301532240156393
-13.4865,0.4467853086403116
-13.486,0.4483552139886514
-13.4855,0.450710072011161
-13.485,0.4514950246853309
-13.4845,0.4522799773595008
-13.484,0.4467853086403116
-13.4835,0.645378335205292
-13.483,0.8062936334101178
-13.4825,0.8329820243318939
-13.482,0.8321970716577241
-13.4815,0.8306271663093843
-13.481,0.8290572609610445
-13.4805,0.8290572609610445
-13.48,0.8290572609610445
-13.4795,0.6924754956554849
-13.479,0.4766135102587672
-13.4785,0.4797533209554467
-13.478,0.4797533209554467
-13.4775,0.4766135102587672
-13.477,0.4750436049104274
-13.4765,0.7537018042407357
-13.476,0.8337669770060638
-13.4755,0.8329820243318939
-13.475,0.8321970716577241
-13.4745,0.8321970716577241
-13.474,0.8314121189835542
-13.4735,0.8298422136352144
-13.473,0.8290572609610445
-13.4725,0.8282723082868746
-13.472,0.8274873556127047
-13.4715,0.8267024029385348
-13.471,0.8259174502643649
-13.4705,0.825132497590195
-13.47,0.4876028476971455
-13.4695,0.4452154032919718
-13.469,0.4475702613144815
-13.4685,0.4499251193369911
-13.468,0.450710072011161
-13.4675,0.4475702613144815
-13.467,0.5190009546639408
-13.4665,0.8337669770060638
-13.466,0.8102183967809673
-13.4655,0.8314121189835542
-13.465,0.8321970716577241
-13.4645,0.8306271663093843
-13.464,0.8290572609610445
-13.4635,0.8290572609610445
-13.463,0.8117883021293071
-13.4625,0.4726887468879177
-13.462,0.4789683682812768
-13.4615,0.4781834156071069
-13.461,0.4758285575845973
-13.4605,0.4742586522362575
-13.46,0.6343889977669136
-13.4595,0.8337669770060638
-13.459,0.8337669770060638
-13.4585,0.8321970716577241
-13.458,0.8314121189835542
-13.4575,0.8321970716577241
-13.457,0.8298422136352144
-13.4565,0.8298422136352144
-13.456,0.8282723082868746
-13.4555,0.8274873556127047
-13.455,0.8274873556127047
-13.4545,0.8259174502643649
-13.454,0.8267024029385348
-13.4535,0.6131952755643267
-13.453,0.4460003559661417
-13.4525,0.4467853086403116
-13.452,0.4491401666628213
-13.4515,0.4499251193369911
-13.451,0.4491401666628213
-13.4505,0.4428605452694622
-13.45,0.778820289814172
-13.4495,0.8023688700392685
-13.449,0.8321970716577241
-13.4485,0.8314121189835542
-13.448,0.8306271663093843
-13.4475,0.8306271663093843
-13.447,0.8290572609610445
-13.4465,0.8290572609610445
-13.446,0.5770874525525121
-13.4455,0.4750436049104274
-13.445,0.4789683682812768
-13.4445,0.4766135102587672
-13.444,0.4734736995620876
-13.4435,0.511151427922242
-13.443,0.8353368823544036
-13.4425,0.8329820243318939
-13.442,0.8337669770060638
-13.4415,0.8321970716577241
-13.441,0.8314121189835542
-13.4405,0.8306271663093843
-13.44,0.8298422136352144
-13.4395,0.8290572609610445
-13.439,0.8282723082868746
-13.4385,0.8274873556127047
-13.438,0.8267024029385348
-13.4375,0.8259174502643649
-13.437,0.7411425614540176
-13.4365,0.4436454979436321
-13.436,0.4460003559661417
-13.4355,0.4483552139886514
-13.435,0.4491401666628213
-13.4345,0.4499251193369911
-13.434,0.444430450617802
-13.4335,0.6500880512503112
-13.433,0.8031538227134384
-13.4325,0.8337669770060638
-13.432,0.8321970716577241
-13.4315,0.8314121189835542
-13.431,0.8306271663093843
-13.4305,0.8306271663093843
-13.43,0.8282723082868746
-13.4295,0.6964002590263343
-13.429,0.4758285575845973
-13.4285,0.4789683682812768
-13.428,0.4773984629329371
-13.4275,0.4750436049104274
-13.427,0.4734736995620876
-13.4265,0.7560566622632454
-13.426,0.8337669770060638
-13.4255,0.8337669770060638
-13.425,0.8321970716577241
-13.4245,0.8314121189835542
-13.424,0.8306271663093843
-13.4235,0.8298422136352144
-13.423,0.8290572609610445
-13.4225,0.8290572609610445
-13.422,0.8267024029385348
-13.4215,0.8274873556127047
-13.421,0.825132497590195
-13.4205,0.8243475449160251
-13.42,0.4868178950229757
-13.4195,0.4467853086403116
-13.419,0.4483552139886514
-13.4185,0.4499251193369911
-13.418,0.450710072011161
-13.4175,0.4475702613144815
-13.417,0.5190009546639408
-13.4165,0.8345519296802337
-13.416,0.8094334441067974
-13.4155,0.8321970716577241
-13.415,0.8314121189835542
-13.4145,0.8306271663093843
-13.414,0.8290572609610445
-13.4135,0.8290572609610445
-13.413,0.8157130655001565
-13.4125,0.4742586522362575
-13.412,0.4789683682812768
-13.4115,0.4797533209554467
-13.411,0.4766135102587672
-13.4105,0.4742586522362575
-13.41,0.6351739504410835
-13.4095,0.8345519296802337
-13.409,0.8337669770060638
-13.4085,0.8329820243318939
-13.408,0.8321970716577241
-13.4075,0.8306271663093843
-13.407,0.8314121189835542
-13.4065,0.8290572609610445
-13.406,0.8290572609610445
-13.4055,0.8267024029385348
-13.405,0.8274873556127047
-13.4045,0.8259174502643649
-13.404,0.825132497590195
-13.4035,0.6131952755643267
-13.403,0.4467853086403116
-13.4025,0.4491401666628213
-13.402,0.4499251193369911
-13.4015,0.4514950246853309
-13.401,0.4499251193369911
-13.4005,0.444430450617802
-13.4,0.7780353371400022
-13.3995,0.8047237280617782
-13.399,0.8321970716577241
-13.3985,0.8321970716577241
-13.398,0.8314121189835542
-13.3975,0.8298422136352144
-13.397,0.8290572609610445
-13.3965,0.8290572609610445
-13.396,0.5786573579008519
-13.3955,0.4781834156071069
-13.395,0.4789683682812768
-13.3945,0.4781834156071069
-13.394,0.4758285575845973
-13.3935,0.5142912386189216
-13.393,0.8369067877027433
-13.3925,0.8337669770060638
-13.392,0.8329820243318939
-13.3915,0.8321970716577241
-13.391,0.8314121189835542
-13.3905,0.8314121189835542
-13.39,0.8298422136352144
-13.3895,0.8298422136352144
-13.389,0.8282723082868746
-13.3885,0.8274873556127047
-13.388,0.8267024029385348
-13.3875,0.8259174502643649
-13.387,0.7419275141281875
-13.3865,0.4460003559661417
-13.386,0.4491401666628213
-13.3855,0.450710072011161
-13.385,0.4522799773595008
-13.3845,0.4522799773595008
-13.384,0.4475702613144815
-13.3835,0.6477331932278015
-13.383,0.8196378288710059
-13.3825,0.8321970716577241
-13.382,0.8321970716577241
-13.3815,0.8306271663093843
-13.381,0.8314121189835542
-13.3805,0.8290572609610445
-13.38,0.8290572609610445
-13.3795,0.6924754956554849
-13.379,0.4773984629329371
-13.3785,0.4813232263037864
-13.378,0.4789683682812768
-13.3775,0.4773984629329371
-13.377,0.4758285575845973
-13.3765,0.7576265676115852
-13.376,0.8329820243318939
-13.3755,0.8345519296802337
-13.375,0.8314121189835542
-13.3745,0.8321970716577241
-13.374,0.8306271663093843
-13.3735,0.8298422136352144
-13.373,0.8282723082868746
-13.3725,0.8282723082868746
-13.372,0.8282723082868746
-13.3715,0.8267024029385348
-13.371,0.8243475449160251
-13.3705,0.8259174502643649
-13.37,0.4930975164163347
-13.3695,0.4483552139886514
-13.369,0.450710072011161
-13.3685,0.4530649300336707
-13.368,0.4546348353820104
-13.3675,0.4514950246853309
-13.367,0.5174310493156011
-13.3665,0.8337669770060638
-13.366,0.8102183967809673
-13.3655,0.8314121189835542
-13.365,0.8306271663093843
-13.3645,0.8306271663093843
-13.364,0.8290572609610445
-13.3635,0.8290572609610445
-13.363,0.8149281128259867
-13.3625,0.4773984629329371
-13.362,0.4821081789779563
-13.3615,0.4821081789779563
-13.361,0.4805382736296165
-13.3605,0.4781834156071069
-13.36,0.6281093763735546
-13.3595,0.8345519296802337
-13.359,0.8329820243318939
-13.3585,0.8337669770060638
-13.358,0.8314121189835542
-13.3575,0.8306271663093843
-13.357,0.8306271663093843
-13.3565,0.8290572609610445
-13.356,0.8274873556127047
-13.3555,0.8274873556127047
-13.355,0.8267024029385348
-13.3545,0.8259174502643649
-13.354,0.825132497590195
-13.3535,0.6171200389351762
-13.353,0.450710072011161
-13.3525,0.4514950246853309
-13.352,0.4530649300336707
-13.3515,0.4546348353820104
-13.351,0.4530649300336707
-13.3505,0.4475702613144815
-13.35,0.7780353371400022
-13.3495,0.8055086807359481
-13.349,0.8314121189835542
-13.3485,0.8314121189835542
-13.348,0.8298422136352144
-13.3475,0.8298422136352144
-13.347,0.8282723082868746
-13.3465,0.8282723082868746
-13.346,0.5810122159233616
-13.3455,0.4797533209554467
-13.345,0.4836780843262961
-13.3445,0.4813232263037864
-13.344,0.4797533209554467
-13.3435,0.5166460966414312
-13.343,0.8345519296802337
-13.3425,0.8337669770060638
-13.342,0.8321970716577241
-13.3415,0.8314121189835542
-13.341,0.8314121189835542
-13.3405,0.8306271663093843
-13.34,0.8298422136352144
-13.3395,0.8282723082868746
-13.339,0.8274873556127047
-13.3385,0.8267024029385348
-13.338,0.8259174502643649
-13.3375,0.825132497590195
-13.337,0.7434974194765273
-13.3365,0.4483552139886514
-13.336,0.4514950246853309
-13.3355,0.4530649300336707
-13.335,0.4538498827078405
-13.3345,0.4530649300336707
-13.334,0.4475702613144815
-13.3335,0.6438084298569522
-13.333,0.8157130655001565
-13.3325,0.8321970716577241
-13.332,0.8314121189835542
-13.3315,0.8306271663093843
-13.331,0.8290572609610445
-13.3305,0.8290572609610445
-13.33,0.8274873556127047
-13.3295,0.6964002590263343
-13.329,0.4711188415395779
-13.3285,0.4750436049104274
-13.328,0.4734736995620876
-13.3275,0.4711188415395779
-13.327,0.4695489361912382
-13.3265,0.7489920881957165
-13.326,0.8337669770060638
-13.3255,0.8321970716577241
-13.325,0.8314121189835542
-13.3245,0.8314121189835542
-13.324,0.8298422136352144
-13.3235,0.8290572609610445
-13.323,0.8282723082868746
-13.3225,0.8282723082868746
-13.322,0.8274873556127047
-13.3215,0.8259174502643649
-13.321,0.8259174502643649
-13.3205,0.8243475449160251
-13.32,0.4868178950229757
-13.3195,0.4475702613144815
-13.319,0.4491401666628213
-13.3185,0.450710072011161
-13.318,0.4530649300336707
-13.3175,0.4491401666628213
-13.317,0.5158611439672613
-13.3165,0.8337669770060638
-13.316,0.8094334441067974
-13.3155,0.8314121189835542
-13.315,0.8306271663093843
-13.3145,0.8306271663093843
-13.314,0.8298422136352144
-13.3135,0.8290572609610445
-13.313,0.8141431601518168
-13.3125,0.4742586522362575
-13.312,0.4805382736296165
-13.3115,0.4797533209554467
-13.311,0.4781834156071069
-13.3105,0.4766135102587672
-13.31,0.6351739504410835
-13.3095,0.8345519296802337
-13.309,0.8321970716577241
-13.3085,0.8321970716577241
-13.308,0.8314121189835542
-13.3075,0.8306271663093843
-13.307,0.8298422136352144
-13.3065,0.8290572609610445
-13.306,0.8282723082868746
-13.3055,0.8274873556127047
-13.305,0.8267024029385348
-13.3045,0.8259174502643649
-13.304,0.825132497590195
-13.3035,0.6147651809126665
-13.303,0.4499251193369911
-13.3025,0.4522799773595008
-13.302,0.4530649300336707
-13.3015,0.4554197880561803
-13.301,0.4546348353820104
-13.3005,0.4483552139886514
-13.3,0.7756804791174925
-13.2995,0.8078635387584576
-13.299,0.8321970716577241
-13.2985,0.8314121189835542
-13.298,0.8298422136352144
-13.2975,0.8298422136352144
-13.297,0.8282723082868746
-13.2965,0.8274873556127047
-13.296,0.584936979294211
-13.2955,0.4821081789779563
-13.295,0.484463037000466
-13.2945,0.4821081789779563
-13.294,0.4797533209554467
-13.2935,0.5127213332705818
-13.293,0.8337669770060638
-13.2925,0.8337669770060638
-13.292,0.8314121189835542
-13.2915,0.8329820243318939
-13.291,0.8298422136352144
-13.2905,0.8298422136352144
-13.29,0.8282723082868746
-13.2895,0.8282723082868746
-13.289,0.8274873556127047
-13.2885,0.8259174502643649
-13.288,0.825132497590195
-13.2875,0.825132497590195
-13.287,0.7458522774990369
-13.2865,0.4491401666628213
-13.286,0.4522799773595008
-13.2855,0.4530649300336707
-13.285,0.4554197880561803
-13.2845,0.4554197880561803
-13.284,0.450710072011161
-13.2835,0.6469482405536318
-13.283,0.8039387753876083
-13.2825,0.8314121189835542
-13.282,0.8306271663093843
-13.2815,0.8306271663093843
-13.281,0.8298422136352144
-13.2805,0.8282723082868746
-13.28,0.8282723082868746
-13.2795,0.7003250223971837
-13.279,0.4805382736296165
-13.2785,0.4852479896746359
-13.278,0.4828931316521262
-13.2775,0.4813232263037864
-13.277,0.4789683682812768
-13.2765,0.7497770408698864
-13.276,0.8329820243318939
-13.2755,0.8314121189835542
-13.275,0.8314121189835542
-13.2745,0.8306271663093843
-13.274,0.8306271663093843
-13.2735,0.8290572609610445
-13.273,0.8282723082868746
-13.2725,0.8267024029385348
-13.272,0.8259174502643649
-13.2715,0.8259174502643649
-13.271,0.8243475449160251
-13.2705,0.8243475449160251
-13.27,0.4946674217646745
-13.2695,0.4522799773595008
-13.269,0.4538498827078405
-13.2685,0.4546348353820104
-13.268,0.4562047407303502
-13.2675,0.4522799773595008
-13.267,0.5190009546639408
-13.2665,0.8329820243318939
-13.266,0.8047237280617782
-13.2655,0.8306271663093843
-13.265,0.8306271663093843
-13.2645,0.8290572609610445
-13.264,0.8290572609610445
-13.2635,0.8282723082868746
-13.263,0.812573254803477
-13.2625,0.4797533209554467
-13.262,0.4836780843262961
-13.2615,0.484463037000466
-13.261,0.4821081789779563
-13.2605,0.4805382736296165
-13.26,0.6336040450927437
-13.2595,0.8337669770060638
-13.259,0.8314121189835542
-13.2585,0.8321970716577241
-13.258,0.8306271663093843
-13.2575,0.8290572609610445
-13.257,0.8298422136352144
-13.2565,0.8282723082868746
-13.256,0.8274873556127047
-13.2555,0.8267024029385348
-13.255,0.825132497590195
-13.2545,0.825132497590195
-13.254,0.825132497590195
-13.2535,0.6226147076543653
-13.253,0.4514950246853309
-13.2525,0.4522799773595008
-13.252,0.4554197880561803
-13.2515,0.4562047407303502
-13.251,0.4554197880561803
-13.2505,0.4491401666628213
-13.25,0.7701858103983032
-13.2495,0.8086484914326275
-13.249,0.8314121189835542
-13.2485,0.8306271663093843
-13.248,0.8298422136352144
-13.2475,0.8290572609610445
-13.247,0.8274873556127047
-13.2465,0.8267024029385348
-13.246,0.584936979294211
-13.2455,0.4813232263037864
-13.245,0.484463037000466
-13.2445,0.4821081789779563
-13.244,0.4805382736296165
-13.2435,0.5119363805964119
-13.243,0.8337669770060638
-13.2425,0.8321970716577241
-13.242,0.8314121189835542
-13.2415,0.8306271663093843
-13.241,0.8298422136352144
-13.2405,0.8290572609610445
-13.24,0.8282723082868746
-13.2395,0.8274873556127047
-13.239,0.8274873556127047
-13.2385,0.825132497590195
-13.238,0.825132497590195
-13.2375,0.825132497590195
-13.237,0.7458522774990369
-13.2365,0.4491401666628213
-13.236,0.450710072011161
-13.2355,0.4530649300336707
-13.235,0.4546348353820104
-13.2345,0.4554197880561803
-13.234,0.4491401666628213
-13.2335,0.6422385245086124
-13.233,0.8070785860842877
-13.2325,0.8314121189835542
-13.232,0.8306271663093843
-13.2315,0.8298422136352144
-13.231,0.8282723082868746
-13.2305,0.8282723082868746
-13.23,0.8274873556127047
-13.2295,0.7011099750713536
-13.229,0.4797533209554467
-13.2285,0.4828931316521262
-13.228,0.4821081789779563
-13.2275,0.4797533209554467
-13.227,0.4789683682812768
-13.2265,0.7505619935440562
-13.226,0.8321970716577241
-13.2255,0.8329820243318939
-13.225,0.8306271663093843
-13.2245,0.8298422136352144
-13.224,0.8298422136352144
-13.2235,0.8282723082868746
-13.223,0.8274873556127047
-13.2225,0.8274873556127047
-13.222,0.8267024029385348
-13.2215,0.8259174502643649
-13.221,0.8243475449160251
-13.2205,0.8243475449160251
-13.22,0.4954523744388444
-13.2195,0.4499251193369911
-13.219,0.4522799773595008
-13.2185,0.4530649300336707
-13.218,0.4538498827078405
-13.2175,0.450710072011161
-13.217,0.5119363805964119
-13.2165,0.8329820243318939
-13.216,0.8015839173650986
-13.2155,0.8306271663093843
-13.215,0.8298422136352144
-13.2145,0.8290572609610445
-13.214,0.8282723082868746
-13.2135,0.8274873556127047
-13.213,0.8157130655001565
-13.2125,0.4781834156071069
-13.212,0.4821081789779563
-13.2115,0.4813232263037864
-13.211,0.4805382736296165
-13.2105,0.4781834156071069
-13.21,0.6336040450927437
-13.2095,0.8321970716577241
-13.209,0.8329820243318939
-13.2085,0.8321970716577241
-13.208,0.8306271663093843
-13.2075,0.8298422136352144
-13.207,0.8290572609610445
-13.2065,0.8274873556127047
-13.206,0.8274873556127047
-13.2055,0.8259174502643649
-13.205,0.8259174502643649
-13.2045,0.8243475449160251
-13.204,0.8243475449160251
-13.2035,0.6171200389351762
-13.203,0.4499251193369911
-13.2025,0.4499251193369911
-13.202,0.4522799773595008
-13.2015,0.4538498827078405
-13.201,0.4522799773595008
-13.2005,0.4460003559661417
-13.2,0.7694008577241334
-13.1995,0.8062936334101178
-13.199,0.8314121189835542
-13.1985,0.8306271663093843
-13.198,0.8290572609610445
-13.1975,0.8290572609610445
-13.197,0.8282723082868746
-13.1965,0.8274873556127047
-13.196,0.5817971685975314
-13.1955,0.4781834156071069
-13.195,0.4813232263037864
-13.1945,0.4789683682812768
-13.194,0.4773984629329371
-13.1935,0.5056567592030529
-13.193,0.8329820243318939
-13.1925,0.8314121189835542
-13.192,0.8314121189835542
-13.1915,0.8321970716577241
-13.191,0.8298422136352144
-13.1905,0.8298422136352144
-13.19,0.8290572609610445
-13.1895,0.8274873556127047
-13.189,0.8274873556127047
-13.1885,0.8259174502643649
-13.188,0.825132497590195
-13.1875,0.8243475449160251
-13.187,0.7442823721506971
-13.1865,0.4475702613144815
-13.186,0.4483552139886514
-13.1855,0.4514950246853309
-13.185,0.4522799773595008
-13.1845,0.4530649300336707
-13.184,0.4475702613144815
-13.1835,0.6398836664861027
-13.183,0.8094334441067974
-13.1825,0.8314121189835542
-13.182,0.8306271663093843
-13.1815,0.8298422136352144
-13.181,0.8298422136352144
-13.1805,0.8282723082868746
-13.18,0.8274873556127047
-13.1795,0.7011099750713536
-13.179,0.4773984629329371
-13.1785,0.4821081789779563
-13.178,0.4805382736296165
-13.1775,0.4781834156071069
-13.177,0.4758285575845973
-13.1765,0.7482071355215466
-13.176,0.8337669770060638
-13.1755,0.8321970716577241
-13.175,0.8321970716577241
-13.1745,0.8306271663093843
-13.174,0.8298422136352144
-13.1735,0.8282723082868746
-13.173,0.8290572609610445
-13.1725,0.8267024029385348
-13.172,0.8267024029385348
-13.1715,0.8259174502643649
-13.171,0.825132497590195
-13.1705,0.8243475449160251
-13.17,0.4993771378096937
-13.1695,0.4483552139886514
-13.169,0.4514950246853309
-13.1685,0.4514950246853309
-13.168,0.4530649300336707
-13.1675,0.4499251193369911
-13.167,0.511151427922242
-13.1665,0.8329820243318939
-13.166,0.8070785860842877
-13.1655,0.8306271663093843
-13.165,0.8306271663093843
-13.1645,0.8298422136352144
-13.164,0.8290572609610445
-13.1635,0.8274873556127047
-13.163,0.8180679235226661
-13.1625,0.4781834156071069
-13.162,0.4805382736296165
-13.1615,0.4821081789779563
-13.161,0.4797533209554467
-13.1605,0.4781834156071069
-13.16,0.6241846130027051
-13.1595,0.8337669770060638
-13.159,0.8321970716577241
-13.1585,0.8306271663093843
-13.158,0.8306271663093843
-13.1575,0.8298422136352144
-13.157,0.8290572609610445
-13.1565,0.8282723082868746
-13.156,0.8274873556127047
-13.1555,0.8267024029385348
-13.155,0.8259174502643649
-13.1545,0.825132497590195
-13.154,0.8243475449160251
-13.1535,0.6210448023060255
-13.153,0.4483552139886514
-13.1525,0.4499251193369911
-13.152,0.4522799773595008
-13.1515,0.4530649300336707
-13.151,0.4522799773595008
-13.1505,0.4467853086403116
-13.15,0.7686159050499635
-13.1495,0.8000140120167588
-13.149,0.8314121189835542
-13.1485,0.8306271663093843
-13.148,0.8298422136352144
-13.1475,0.8290572609610445
-13.147,0.8290572609610445
-13.1465,0.8267024029385348
-13.146,0.5825821212717013
-13.1455,0.4805382736296165
-13.145,0.4821081789779563
-13.1445,0.4813232263037864
-13.144,0.4797533209554467
-13.1435,0.5119363805964119
-13.143,0.8337669770060638
-13.1425,0.8321970716577241
-13.142,0.8329820243318939
-13.1415,0.8314121189835542
-13.141,0.8298422136352144
-13.1405,0.8306271663093843
-13.14,0.8290572609610445
-13.1395,0.8274873556127047
-13.139,0.8267024029385348
-13.1385,0.8259174502643649
-13.138,0.825132497590195
-13.1375,0.825132497590195
-13.137,0.7513469462182261
-13.1365,0.4491401666628213
-13.136,0.450710072011161
-13.1355,0.4522799773595008
-13.135,0.4546348353820104
-13.1345,0.4546348353820104
-13.134,0.4499251193369911
-13.1335,0.6359589031152534
-13.133,0.8070785860842877
-13.1325,0.8314121189835542
-13.132,0.8306271663093843
-13.1315,0.8298422136352144
-13.131,0.8290572609610445
-13.1305,0.8282723082868746
-13.13,0.8274873556127047
-13.1295,0.7073895964647127
-13.129,0.4789683682812768
-13.1285,0.4836780843262961
-13.128,0.4821081789779563
-13.1275,0.4797533209554467
-13.127,0.4773984629329371
-13.1265,0.7419275141281875
-13.126,0.8329820243318939
-13.1255,0.8314121189835542
-13.125,0.8314121189835542
-13.1245,0.8314121189835542
-13.124,0.8298422136352144
-13.1235,0.8298422136352144
-13.123,0.8274873556127047
-13.1225,0.8267024029385348
-13.122,0.8267024029385348
-13.1215,0.825132497590195
-13.121,0.825132497590195
-13.1205,0.8235625922418554
-13.12,0.4985921851355239
-13.1195,0.4514950246853309
-13.119,0.4514950246853309
-13.1185,0.4546348353820104
-13.118,0.4554197880561803
-13.1175,0.4522799773595008
-13.117,0.5072266645513925
-13.1165,0.8321970716577241
-13.116,0.8086484914326275
-13.1155,0.8298422136352144
-13.115,0.8298422136352144
-13.1145,0.8290572609610445
-13.114,0.8282723082868746
-13.1135,0.8274873556127047
-13.113,0.818852876196836
-13.1125,0.4805382736296165
-13.112,0.4836780843262961
-13.1115,0.4828931316521262
-13.111,0.4813232263037864
-13.1105,0.4789683682812768
-13.11,0.6202598496318557
-13.1095,0.8345519296802337
-13.109,0.8329820243318939
-13.1085,0.8306271663093843
-13.108,0.8314121189835542
-13.1075,0.8290572609610445
-13.107,0.8290572609610445
-13.1065,0.8282723082868746
-13.106,0.8274873556127047
-13.1055,0.8267024029385348
-13.105,0.8259174502643649
-13.1045,0.8243475449160251
-13.104,0.8235625922418554
-13.1035,0.624969565676875
-13.103,0.4514950246853309
-13.1025,0.4530649300336707
-13.102,0.4554197880561803
-13.1015,0.4569896934045201
-13.101,0.4546348353820104
-13.1005,0.4483552139886514
-13.1,0.7646911416791141
-13.0995,0.8062936334101178
-13.099,0.8306271663093843
-13.0985,0.8306271663093843
-13.098,0.8290572609610445
-13.0975,0.8282723082868746
-13.097,0.8282723082868746
-13.0965,0.8267024029385348
-13.096,0.5935714587100797
-13.0955,0.4828931316521262
-13.095,0.4860329423488058
-13.0945,0.484463037000466
-13.094,0.4821081789779563
-13.0935,0.5095815225739022
-13.093,0.8321970716577241
-13.0925,0.8321970716577241
-13.092,0.8314121189835542
-13.0915,0.8306271663093843
-13.091,0.8298422136352144
-13.0905,0.8298422136352144
-13.09,0.8274873556127047
-13.0895,0.8274873556127047
-13.089,0.8259174502643649
-13.0885,0.8267024029385348
-13.088,0.825132497590195
-13.0875,0.8235625922418554
-13.087,0.7505619935440562
-13.0865,0.4499251193369911
-13.086,0.4530649300336707
-13.0855,0.4538498827078405
-13.085,0.4562047407303502
-13.0845,0.4569896934045201
-13.084,0.4514950246853309
-13.0835,0.6422385245086124
-13.083,0.8031538227134384
-13.0825,0.8306271663093843
-13.082,0.8298422136352144
-13.0815,0.8306271663093843
-13.081,0.8282723082868746
-13.0805,0.8274873556127047
-13.08,0.8274873556127047
-13.0795,0.7081745491388826
-13.079,0.4805382736296165
-13.0785,0.4860329423488058
-13.078,0.484463037000466
-13.0775,0.4828931316521262
-13.077,0.4813232263037864
-13.0765,0.7419275141281875
-13.076,0.8321970716577241
-13.0755,0.8314121189835542
-13.075,0.8314121189835542
-13.0745,0.8298422136352144
-13.074,0.8290572609610445
-13.0735,0.8290572609610445
-13.073,0.8274873556127047
-13.0725,0.8267024029385348
-13.072,0.8259174502643649
-13.0715,0.825132497590195
-13.071,0.8243475449160251
-13.0705,0.8235625922418554
-13.07,0.4962373271130143
-13.0695,0.4522799773595008
-13.069,0.4554197880561803
-13.0685,0.4562047407303502
-13.068,0.45777464607869
-13.0675,0.4546348353820104
-13.067,0.5127213332705818
-13.0665,0.8321970716577241
-13.066,0.8078635387584576
-13.0655,0.8306271663093843
-13.065,0.8298422136352144
-13.0645,0.8282723082868746
-13.064,0.8274873556127047
-13.0635,0.8267024029385348
-13.063,0.818852876196836
-13.0625,0.4836780843262961
-13.062,0.484463037000466
-13.0615,0.4852479896746359
-13.061,0.4828931316521262
-13.0605,0.4813232263037864
-13.06,0.6273244236993847
-13.0595,0.8337669770060638
-13.059,0.8321970716577241
-13.0585,0.8306271663093843
-13.058,0.8298422136352144
-13.0575,0.8290572609610445
-13.057,0.8290572609610445
-13.0565,0.8274873556127047
-13.056,0.8274873556127047
-13.0555,0.8259174502643649
-13.055,0.8243475449160251
-13.0545,0.825132497590195
-13.054,0.8227776395676855
-13.0535,0.624969565676875
-13.053,0.4522799773595008
-13.0525,0.4538498827078405
-13.052,0.4546348353820104
-13.0515,0.4569896934045201
-13.051,0.4562047407303502
-13.0505,0.450710072011161
-13.05,0.7678309523757937
-13.0495,0.8055086807359481
-13.049,0.8306271663093843
-13.0485,0.8298422136352144
-13.048,0.8290572609610445
-13.0475,0.8274873556127047
-13.047,0.8274873556127047
-13.0465,0.8259174502643649
-13.046,0.5927865060359098
-13.0455,0.4836780843262961
-13.045,0.4860329423488058
-13.0445,0.484463037000466
-13.044,0.4813232263037864
-13.0435,0.5080116172255624
-13.043,0.8314121189835542
-13.0425,0.8321970716577241
-13.042,0.8314121189835542
-13.0415,0.8290572609610445
-13.041,0.8290572609610445
-13.0405,0.8282723082868746
-13.04,0.8274873556127047
-13.0395,0.8267024029385348
-13.039,0.8259174502643649
-13.0385,0.8259174502643649
-13.038,0.8243475449160251
-13.0375,0.8235625922418554
-13.037,0.7458522774990369
-13.0365,0.4499251193369911
-13.036,0.4530649300336707
-13.0355,0.4554197880561803
-13.035,0.4562047407303502
-13.0345,0.4569896934045201
-13.034,0.4514950246853309
-13.0335,0.6438084298569522
-13.033,0.8023688700392685
-13.0325,0.8298422136352144
-13.032,0.8290572609610445
-13.0315,0.8290572609610445
-13.031,0.8274873556127047
-13.0305,0.8274873556127047
-13.03,0.8259174502643649
-13.0295,0.7058196911163729
-13.029,0.4821081789779563
-13.0285,0.4868178950229757
-13.028,0.484463037000466
-13.0275,0.4821081789779563
-13.027,0.4813232263037864
-13.0265,0.7427124668023574
-13.026,0.8314121189835542
-13.0255,0.8314121189835542
-13.025,0.8306271663093843
-13.0245,0.8290572609610445
-13.024,0.8290572609610445
-13.0235,0.8282723082868746
-13.023,0.8267024029385348
-13.0225,0.8259174502643649
-13.022,0.825132497590195
-13.0215,0.8243475449160251
-13.021,0.8235625922418554
-13.0205,0.8227776395676855
-13.02,0.5033019011805432
-13.0195,0.4514950246853309
-13.019,0.4546348353820104
-13.0185,0.4554197880561803
-13.018,0.4562047407303502
-13.0175,0.4522799773595008
-13.017,0.5095815225739022
-13.0165,0.8314121189835542
-13.016,0.8031538227134384
-13.0155,0.8290572609610445
-13.015,0.8290572609610445
-13.0145,0.8282723082868746
-13.014,0.8274873556127047
-13.0135,0.8267024029385348
-13.013,0.8196378288710059
-13.0125,0.484463037000466
-13.012,0.4852479896746359
-13.0115,0.4828931316521262
-13.011,0.4821081789779563
-13.0105,0.4797533209554467
-13.01,0.6210448023060255
-13.0095,0.8329820243318939
-13.009,0.8321970716577241
-13.0085,0.8298422136352144
-13.008,0.8290572609610445
-13.0075,0.8290572609610445
-13.007,0.8290572609610445
-13.0065,0.8267024029385348
-13.006,0.8267024029385348
-13.0055,0.8259174502643649
-13.005,0.8243475449160251
-13.0045,0.8235625922418554
-13.004,0.8227776395676855
-13.0035,0.6194748969576858
-13.003,0.4522799773595008
-13.0025,0.4530649300336707
-13.002,0.4546348353820104
-13.0015,0.4562047407303502
-13.001,0.4546348353820104
-13.0005,0.4475702613144815
-13,0.7694008577241334
-12.9995,0.8039387753876083
-12.999,0.8298422136352144
-12.9985,0.8290572609610445
-12.998,0.8290572609610445
-12.9975,0.8274873556127047
-12.997,0.8267024029385348
-12.9965,0.8259174502643649
-12.996,0.5904316480134002
-12.9955,0.4821081789779563
-12.995,0.4860329423488058
-12.9945,0.4836780843262961
-12.994,0.4813232263037864
-12.9935,0.5095815225739022
-12.993,0.8314121189835542
-12.9925,0.8314121189835542
-12.992,0.8306271663093843
-12.9915,0.8298422136352144
-12.991,0.8290572609610445
-12.9905,0.8282723082868746
-12.99,0.8274873556127047
-12.9895,0.8267024029385348
-12.989,0.8259174502643649
-12.9885,0.825132497590195
-12.988,0.8243475449160251
-12.9875,0.8235625922418554
-12.987,0.7482071355215466
-12.9865,0.4499251193369911
-12.986,0.4522799773595008
-12.9855,0.4538498827078405
-12.985,0.4546348353820104
-12.9845,0.4554197880561803
-12.984,0.4499251193369911
-12.9835,0.6422385245086124
-12.983,0.8110033494551372
-12.9825,0.8306271663093843
-12.982,0.8298422136352144
-12.9815,0.8290572609610445
-12.981,0.8274873556127047
-12.9805,0.8274873556127047
-12.98,0.8267024029385348
-12.9795,0.7081745491388826
-12.979,0.4813232263037864
-12.9785,0.4852479896746359
-12.978,0.4836780843262961
-12.9775,0.4813232263037864
-12.977,0.4789683682812768
-12.9765,0.738787703431508
-12.976,0.8306271663093843
-12.9755,0.8306271663093843
-12.975,0.8306271663093843
-12.9745,0.8290572609610445
-12.974,0.8282723082868746
-12.9735,0.8267024029385348
-12.973,0.8267024029385348
-12.9725,0.8259174502643649
-12.972,0.8259174502643649
-12.9715,0.8243475449160251
-12.971,0.8235625922418554
-12.9705,0.8227776395676855
-12.97,0.5001620904838636
-12.9695,0.450710072011161
-12.969,0.4522799773595008
-12.9685,0.4530649300336707
-12.968,0.4554197880561803
-12.9675,0.4522799773595008
-12.967,0.5080116172255624
-12.9665,0.8321970716577241
-12.966,0.8062936334101178
-12.9655,0.8298422136352144
-12.965,0.8290572609610445
-12.9645,0.8282723082868746
-12.964,0.8274873556127047
-12.9635,0.8267024029385348
-12.963,0.818852876196836
-12.9625,0.4813232263037864
-12.962,0.4828931316521262
-12.9615,0.4821081789779563
-12.961,0.4813232263037864
-12.9605,0.4789683682812768
-12.96,0.6257545183510449
-12.9595,0.8329820243318939
-12.959,0.8314121189835542
-12.9585,0.8306271663093843
-12.958,0.8298422136352144
-12.9575,0.8282723082868746
-12.957,0.8282723082868746
-12.9565,0.8274873556127047
-12.956,0.8267024029385348
-12.9555,0.8259174502643649
-12.955,0.8235625922418554
-12.9545,0.8235625922418554
-12.954,0.8235625922418554
-12.9535,0.6218297549801954
-12.953,0.4499251193369911
-12.9525,0.4499251193369911
-12.952,0.4522799773595008
-12.9515,0.4538498827078405
-12.951,0.4522799773595008
-12.9505,0.4460003559661417
-12.95,0.7623362836566044
-12.9495,0.8062936334101178
-12.949,0.8298422136352144
-12.9485,0.8290572609610445
-12.948,0.8290572609610445
-12.9475,0.8282723082868746
-12.947,0.8274873556127047
-12.9465,0.8259174502643649
-12.946,0.5896466953392303
-12.9455,0.4813232263037864
-12.945,0.4828931316521262
-12.9445,0.4813232263037864
-12.944,0.4789683682812768
-12.9435,0.5095815225739022
-12.943,0.8306271663093843
-12.9425,0.8321970716577241
-12.942,0.8306271663093843
-12.9415,0.8298422136352144
-12.941,0.8282723082868746
-12.9405,0.8282723082868746
-12.94,0.8274873556127047
-12.9395,0.8267024029385348
-12.939,0.825132497590195
-12.9385,0.825132497590195
-12.938,0.8243475449160251
-12.9375,0.8243475449160251
-12.937,0.7505619935440562
-12.9365,0.4483552139886514
-12.936,0.450710072011161
-12.9355,0.450710072011161
-12.935,0.4538498827078405
-12.9345,0.4546348353820104
-12.934,0.4491401666628213
-12.9335,0.6336040450927437
-12.933,0.8062936334101178
-12.9325,0.8298422136352144
-12.932,0.8298422136352144
-12.9315,0.8290572609610445
-12.931,0.8274873556127047
-12.9305,0.8274873556127047
-12.93,0.8267024029385348
-12.9295,0.7081745491388826
-12.929,0.4781834156071069
-12.9285,0.4828931316521262
-12.928,0.4805382736296165
-12.9275,0.4797533209554467
-12.927,0.4781834156071069
-12.9265,0.7403576087798478
-12.926,0.8321970716577241
-12.9255,0.8314121189835542
-12.925,0.8314121189835542
-12.9245,0.8298422136352144
-12.924,0.8282723082868746
-12.9235,0.8274873556127047
-12.923,0.8274873556127047
-12.9225,0.8259174502643649
-12.922,0.825132497590195
-12.9215,0.8243475449160251
-12.921,0.8243475449160251
-12.9205,0.8235625922418554
-12.92,0.5001620904838636
-12.9195,0.450710072011161
-12.919,0.4514950246853309
-12.9185,0.4530649300336707
-12.918,0.4546348353820104
-12.9175,0.450710072011161
-12.917,0.5064417118772226
-12.9165,0.8321970716577241
-12.916,0.7992290593425889
-12.9155,0.8314121189835542
-12.915,0.8290572609610445
-12.9145,0.8290572609610445
-12.914,0.8282723082868746
-12.9135,0.8267024029385348
-12.913,0.8204227815451758
-12.9125,0.4828931316521262
-12.912,0.4821081789779563
-12.9115,0.4828931316521262
-12.911,0.4805382736296165
-12.9105,0.4781834156071069
-12.91,0.6273244236993847
-12.9095,0.8321970716577241
-12.909,0.8329820243318939
-12.9085,0.8306271663093843
-12.908,0.8298422136352144
-12.9075,0.8290572609610445
-12.907,0.8282723082868746
-12.9065,0.8274873556127047
-12.906,0.8267024029385348
-12.9055,0.8259174502643649
-12.905,0.8243475449160251
-12.9045,0.8243475449160251
-12.904,0.8243475449160251
-12.9035,0.6265394710252148
-12.903,0.4499251193369911
-12.9025,0.4522799773595008
-12.902,0.4538498827078405
-12.9015,0.4554197880561803
-12.901,0.4538498827078405
-12.9005,0.4483552139886514
-12.9,0.7607663783082647
-12.8995,0.798444106668419
-12.899,0.8314121189835542
-12.8985,0.8298422136352144
-12.898,0.8290572609610445
-12.8975,0.8290572609610445
-12.897,0.8267024029385348
-12.8965,0.8267024029385348
-12.896,0.5943564113842495
-12.8955,0.4805382736296165
-12.895,0.484463037000466
-12.8945,0.4813232263037864
-12.894,0.4797533209554467
-12.8935,0.5056567592030529
-12.893,0.8321970716577241
-12.8925,0.8306271663093843
-12.892,0.8314121189835542
-12.8915,0.8306271663093843
-12.891,0.8298422136352144
-12.8905,0.8290572609610445
-12.89,0.8274873556127047
-12.8895,0.8267024029385348
-12.889,0.8259174502643649
-12.8885,0.825132497590195
-12.888,0.8243475449160251
-12.8875,0.8235625922418554
-12.887,0.752131898892396
-12.8865,0.450710072011161
-12.886,0.4530649300336707
-12.8855,0.4546348353820104
-12.885,0.4562047407303502
-12.8845,0.4569896934045201
-12.884,0.4514950246853309
-12.8835,0.6296792817218942
-12.883,0.8062936334101178
-12.8825,0.8298422136352144
-12.882,0.8298422136352144
-12.8815,0.8290572609610445
-12.881,0.8282723082868746
-12.8805,0.8282723082868746
-12.88,0.8267024029385348
-12.8795,0.705034738442203
-12.879,0.4813232263037864
-12.8785,0.4852479896746359
-12.878,0.4836780843262961
-12.8775,0.4821081789779563
-12.877,0.4797533209554467
-12.8765,0.7427124668023574
-12.876,0.8321970716577241
-12.8755,0.8314121189835542
-12.875,0.8298422136352144
-12.8745,0.8298422136352144
-12.874,0.8298422136352144
-12.8735,0.8274873556127047
-12.873,0.8267024029385348
-12.8725,0.8259174502643649
-12.872,0.825132497590195
-12.8715,0.825132497590195
-12.871,0.8235625922418554
-12.8705,0.8227776395676855
-12.87,0.511151427922242
-12.8695,0.4562047407303502
-12.869,0.4562047407303502
-12.8685,0.4585595987528599
-12.868,0.4585595987528599
-12.8675,0.4554197880561803
-12.867,0.5017319958322034
-12.8665,0.8321970716577241
-12.866,0.8062936334101178
-12.8655,0.8306271663093843
-12.865,0.8290572609610445
-12.8645,0.8290572609610445
-12.864,0.8274873556127047
-12.8635,0.8267024029385348
-12.863,0.8212077342193457
-12.8625,0.4883878003713154
-12.862,0.484463037000466
-12.8615,0.4852479896746359
-12.861,0.4828931316521262
-12.8605,0.4813232263037864
-12.86,0.6186899442835159
-12.8595,0.8337669770060638
-12.859,0.8314121189835542
-12.8585,0.8298422136352144
-12.858,0.8306271663093843
-12.8575,0.8290572609610445
-12.857,0.8282723082868746
-12.8565,0.8274873556127047
-12.856,0.8267024029385348
-12.8555,0.8259174502643649
-12.855,0.8243475449160251
-12.8545,0.8235625922418554
-12.854,0.8235625922418554
-12.8535,0.6320341397444039
-12.853,0.4530649300336707
-12.8525,0.4530649300336707
-12.852,0.4554197880561803
-12.8515,0.4562047407303502
-12.851,0.4554197880561803
-12.8505,0.4499251193369911
-12.85,0.759196472959925
-12.8495,0.7976591539942491
-12.849,0.8306271663093843
-12.8485,0.8298422136352144
-12.848,0.8274873556127047
-12.8475,0.8282723082868746
-12.847,0.8267024029385348
-12.8465,0.8267024029385348
-12.846,0.5943564113842495
-12.8455,0.4836780843262961
-12.845,0.484463037000466
-12.8445,0.4836780843262961
-12.844,0.4805382736296165
-12.8435,0.5040868538547131
-12.843,0.8314121189835542
-12.8425,0.8321970716577241
-12.842,0.8306271663093843
-12.8415,0.8290572609610445
-12.841,0.8290572609610445
-12.8405,0.8290572609610445
-12.84,0.8274873556127047
-12.8395,0.8267024029385348
-12.839,0.825132497590195
-12.8385,0.825132497590195
-12.838,0.8243475449160251
-12.8375,0.8235625922418554
-12.837,0.7513469462182261
-12.8365,0.4514950246853309
-12.836,0.4530649300336707
-12.8355,0.4538498827078405
-12.835,0.4562047407303502
-12.8345,0.4569896934045201
-12.834,0.4514950246853309
-12.8335,0.6257545183510449
-12.833,0.8055086807359481
-12.8325,0.8290572609610445
-12.832,0.8290572609610445
-12.8315,0.8282723082868746
-12.831,0.8282723082868746
-12.8305,0.8267024029385348
-12.83,0.8267024029385348
-12.8295,0.7097444544872223
-12.829,0.4797533209554467
-12.8285,0.4852479896746359
-12.828,0.4828931316521262
