#Digilent WaveForms Oscilloscope Acquisition
#Device Name: EExplorer
#Serial Number: SN:210151262793
#Date Time: 2020-04-24 19:30:05.112
#Sample rate: 2000Hz
#Samples: 60000
#Trigger: Source: EKG Board Output Type: Edge Condition: Rising Level: 100 mV Hyst.: Auto HoldOff: 0 s
#EKG Board Output: Range: 20 mV/div Offset: -688 mV Attenuation: 1 X
#Wavegen Channel 1: Disabled
#Mode: Simple
#Type: Sine
#Frequency: 5 Hz
#Period: 200 ms
#Amplitude: 10 mV
#Offset: 130 mV
#Symmetry: 50 %
#Phase: 0 °
#Wavegen Channel 2: Disabled
#Mode: Simple
#Type: Sine
#Frequency: 5 Hz
#Period: 200 ms
#Amplitude: 10 mV
#Offset: 15 mV
#Symmetry: 50 %
#Phase: 180 °
#Power Supplies: ON
#Fixed Supply: OFF
#Voltage: 3.3 V
#Positive Supply: ON
#Voltage: 4 V Readback: 3.999 V
#Current: 500 mA Readback: 19 mA
#Negative Supply: OFF
#Voltage: -2 V
#Current: -500 mA
#Reference 1: OFF
#Voltage: 0 V
#Reference 2: OFF
#Voltage: 0 V

#Gathering EKG Data
#2020/04/24
#EKG-1.0
#Filename indicates configuration
#30 second recording, 2kHz sample rate, 60k samples
#Time (s),EKG Board Output (V)
-15,0.6869808269362957
-14.9995,0.6948303536779945
-14.999,0.6956153063521644
-14.9985,0.6964002590263343
-14.998,0.6948303536779945
-14.9975,0.6956153063521644
-14.997,0.6956153063521644
-14.9965,0.6956153063521644
-14.996,0.672066726127068
-14.9955,0.6736366314754078
-14.995,0.6909055903071452
-14.9945,0.7003250223971837
-14.994,0.7089595018130525
-14.9935,0.7128842651839018
-14.993,0.6956153063521644
-14.9925,0.6964002590263343
-14.992,0.6948303536779945
-14.9915,0.6956153063521644
-14.991,0.6956153063521644
-14.9905,0.6948303536779945
-14.99,0.6956153063521644
-14.9895,0.6956153063521644
-14.989,0.6956153063521644
-14.9885,0.6956153063521644
-14.988,0.6948303536779945
-14.9875,0.6948303536779945
-14.987,0.6956153063521644
-14.9865,0.6971852117005042
-14.986,0.6909055903071452
-14.9855,0.6830560635654463
-14.985,0.6744215841495776
-14.9845,0.6681419627562185
-14.984,0.6555827199695005
-14.9835,0.672066726127068
-14.983,0.6964002590263343
-14.9825,0.6956153063521644
-14.982,0.6948303536779945
-14.9815,0.6956153063521644
-14.981,0.6948303536779945
-14.9805,0.6956153063521644
-14.98,0.6956153063521644
-14.9795,0.6838410162396162
-14.979,0.6689269154303884
-14.9785,0.6854109215879559
-14.978,0.6971852117005042
-14.9775,0.7073895964647127
-14.977,0.7152391232064115
-14.9765,0.7003250223971837
-14.976,0.6948303536779945
-14.9755,0.6964002590263343
-14.975,0.6956153063521644
-14.9745,0.6956153063521644
-14.974,0.6948303536779945
-14.9735,0.6956153063521644
-14.973,0.6956153063521644
-14.9725,0.6956153063521644
-14.972,0.6956153063521644
-14.9715,0.6956153063521644
-14.971,0.6948303536779945
-14.9705,0.6956153063521644
-14.97,0.6979701643746741
-14.9695,0.6948303536779945
-14.969,0.6861958742621258
-14.9685,0.6775613948462571
-14.968,0.672066726127068
-14.9675,0.6618623413628595
-14.967,0.6563676726436702
-14.9665,0.6964002590263343
-14.966,0.6956153063521644
-14.9655,0.6956153063521644
-14.965,0.6964002590263343
-14.9645,0.6956153063521644
-14.964,0.6956153063521644
-14.9635,0.6956153063521644
-14.963,0.6948303536779945
-14.9625,0.6626472940370294
-14.962,0.6807012055429367
-14.9615,0.6956153063521644
-14.961,0.705034738442203
-14.9605,0.7136692178580717
-14.96,0.7089595018130525
-14.9595,0.6948303536779945
-14.959,0.6956153063521644
-14.9585,0.6956153063521644
-14.958,0.6964002590263343
-14.9575,0.6956153063521644
-14.957,0.6948303536779945
-14.9565,0.6956153063521644
-14.956,0.6956153063521644
-14.9555,0.6956153063521644
-14.955,0.6964002590263343
-14.9545,0.6956153063521644
-14.954,0.6948303536779945
-14.9535,0.6979701643746741
-14.953,0.6971852117005042
-14.9525,0.6901206376329753
-14.952,0.6814861582171066
-14.9515,0.6744215841495776
-14.951,0.6665720574078787
-14.9505,0.6524429092728209
-14.95,0.6877657796104656
-14.9495,0.6956153063521644
-14.949,0.6956153063521644
-14.9485,0.6956153063521644
-14.948,0.6948303536779945
-14.9475,0.6964002590263343
-14.947,0.6956153063521644
-14.9465,0.6956153063521644
-14.946,0.6728516788012379
-14.9455,0.6767764421720872
-14.945,0.691690542981315
-14.9445,0.7018949277455235
-14.944,0.7105294071613922
-14.9435,0.7152391232064115
-14.943,0.6964002590263343
-14.9425,0.6964002590263343
-14.942,0.6964002590263343
-14.9415,0.6956153063521644
-14.941,0.6964002590263343
-14.9405,0.6956153063521644
-14.94,0.6964002590263343
-14.9395,0.6956153063521644
-14.939,0.6964002590263343
-14.9385,0.6956153063521644
-14.938,0.6964002590263343
-14.9375,0.6956153063521644
-14.937,0.6956153063521644
-14.9365,0.6995400697230139
-14.936,0.6940454010038246
-14.9355,0.6854109215879559
-14.935,0.6775613948462571
-14.9345,0.6704968207787282
-14.934,0.65793757799201
-14.9335,0.6712817734528981
-14.933,0.6964002590263343
-14.9325,0.6956153063521644
-14.932,0.6964002590263343
-14.9315,0.6956153063521644
-14.931,0.6956153063521644
-14.9305,0.6964002590263343
-14.93,0.6964002590263343
-14.9295,0.6838410162396162
-14.929,0.6704968207787282
-14.9285,0.6885507322846355
-14.928,0.7003250223971837
-14.9275,0.7097444544872223
-14.927,0.7175939812289212
-14.9265,0.7011099750713536
-14.926,0.6964002590263343
-14.9255,0.6956153063521644
-14.925,0.6971852117005042
-14.9245,0.6956153063521644
-14.924,0.6971852117005042
-14.9235,0.6956153063521644
-14.923,0.6964002590263343
-14.9225,0.6956153063521644
-14.922,0.6964002590263343
-14.9215,0.6956153063521644
-14.921,0.6956153063521644
-14.9205,0.6956153063521644
-14.92,0.7003250223971837
-14.9195,0.6964002590263343
-14.919,0.6901206376329753
-14.9185,0.6807012055429367
-14.918,0.6752065368237475
-14.9175,0.6642171993853692
-14.917,0.6587225306661799
-14.9165,0.6964002590263343
-14.916,0.6964002590263343
-14.9155,0.6956153063521644
-14.915,0.6964002590263343
-14.9145,0.6956153063521644
-14.914,0.6956153063521644
-14.9135,0.6956153063521644
-14.913,0.6956153063521644
-14.9125,0.6665720574078787
-14.912,0.6830560635654463
-14.9115,0.6971852117005042
-14.911,0.7081745491388826
-14.9105,0.7160240758805814
-14.91,0.7081745491388826
-14.9095,0.6964002590263343
-14.909,0.6956153063521644
-14.9085,0.6964002590263343
-14.908,0.6964002590263343
-14.9075,0.6956153063521644
-14.907,0.6956153063521644
-14.9065,0.6964002590263343
-14.906,0.6956153063521644
-14.9055,0.6956153063521644
-14.905,0.6964002590263343
-14.9045,0.6956153063521644
-14.904,0.6956153063521644
-14.9035,0.698755117048844
-14.903,0.7003250223971837
-14.9025,0.6924754956554849
-14.902,0.6846259689137861
-14.9015,0.6767764421720872
-14.901,0.6689269154303884
-14.9005,0.6547977672953306
-14.9,0.6877657796104656
-14.8995,0.6948303536779945
-14.899,0.6956153063521644
-14.8985,0.6964002590263343
-14.898,0.6956153063521644
-14.8975,0.6956153063521644
-14.897,0.6956153063521644
-14.8965,0.6964002590263343
-14.896,0.6752065368237475
-14.8955,0.6775613948462571
-14.895,0.6948303536779945
-14.8945,0.7058196911163729
-14.894,0.7152391232064115
-14.8935,0.7168090285547513
-14.893,0.6956153063521644
-14.8925,0.6964002590263343
-14.892,0.6964002590263343
-14.8915,0.6956153063521644
-14.891,0.6964002590263343
-14.8905,0.6956153063521644
-14.89,0.6956153063521644
-14.8895,0.6956153063521644
-14.889,0.6964002590263343
-14.8885,0.6948303536779945
-14.888,0.6956153063521644
-14.8875,0.6956153063521644
-14.887,0.6956153063521644
-14.8865,0.7034648330938632
-14.886,0.6964002590263343
-14.8855,0.6885507322846355
-14.885,0.6807012055429367
-14.8845,0.6744215841495776
-14.884,0.6618623413628595
-14.8835,0.6744215841495776
-14.883,0.6964002590263343
-14.8825,0.6956153063521644
-14.882,0.6956153063521644
-14.8815,0.6948303536779945
-14.881,0.6964002590263343
-14.8805,0.6956153063521644
-14.88,0.6956153063521644
-14.8795,0.6838410162396162
-14.879,0.6736366314754078
-14.8785,0.691690542981315
-14.878,0.7034648330938632
-14.8775,0.712099312509732
-14.877,0.7207337919256007
-14.8765,0.7011099750713536
-14.876,0.6956153063521644
-14.8755,0.6964002590263343
-14.875,0.6948303536779945
-14.8745,0.6956153063521644
-14.874,0.6948303536779945
-14.8735,0.6956153063521644
-14.873,0.6956153063521644
-14.8725,0.6948303536779945
-14.872,0.6948303536779945
-14.8715,0.6956153063521644
-14.871,0.6948303536779945
-14.8705,0.6948303536779945
-14.87,0.7018949277455235
-14.8695,0.698755117048844
-14.869,0.691690542981315
-14.8685,0.6830560635654463
-14.868,0.6767764421720872
-14.8675,0.6657871047337089
-14.867,0.6602924360145197
-14.8665,0.6956153063521644
-14.866,0.6956153063521644
-14.8655,0.6948303536779945
-14.865,0.6964002590263343
-14.8645,0.6948303536779945
-14.864,0.6956153063521644
-14.8635,0.6956153063521644
-14.863,0.6956153063521644
-14.8625,0.6673570100820486
-14.862,0.6854109215879559
-14.8615,0.7003250223971837
-14.861,0.7089595018130525
-14.8605,0.7175939812289212
-14.86,0.7097444544872223
-14.8595,0.6956153063521644
-14.859,0.6948303536779945
-14.8585,0.6956153063521644
-14.858,0.6948303536779945
-14.8575,0.6956153063521644
-14.857,0.6956153063521644
-14.8565,0.6956153063521644
-14.856,0.6956153063521644
-14.8555,0.6948303536779945
-14.855,0.6956153063521644
-14.8545,0.6948303536779945
-14.854,0.6956153063521644
-14.8535,0.698755117048844
-14.853,0.7003250223971837
-14.8525,0.6932604483296548
-14.852,0.6846259689137861
-14.8515,0.678346347520427
-14.851,0.6697118681045583
-14.8505,0.6555827199695005
-14.85,0.6885507322846355
-14.8495,0.6940454010038246
-14.849,0.6956153063521644
-14.8485,0.6956153063521644
-14.848,0.6956153063521644
-14.8475,0.6948303536779945
-14.847,0.6940454010038246
-14.8465,0.6964002590263343
-14.846,0.6728516788012379
-14.8455,0.6799162528687668
-14.845,0.6948303536779945
-14.8445,0.7058196911163729
-14.844,0.7144541705322416
-14.8435,0.7160240758805814
-14.843,0.6956153063521644
-14.8425,0.6948303536779945
-14.842,0.6948303536779945
-14.8415,0.6948303536779945
-14.841,0.6940454010038246
-14.8405,0.6948303536779945
-14.84,0.6948303536779945
-14.8395,0.6940454010038246
-14.839,0.6956153063521644
-14.8385,0.6940454010038246
-14.838,0.6956153063521644
-14.8375,0.6948303536779945
-14.837,0.6956153063521644
-14.8365,0.7026798804196934
-14.836,0.6948303536779945
-14.8355,0.6877657796104656
-14.835,0.678346347520427
-14.8345,0.6728516788012379
-14.834,0.6595074833403498
-14.8335,0.6728516788012379
-14.833,0.6964002590263343
-14.8325,0.6956153063521644
-14.832,0.6948303536779945
-14.8315,0.6956153063521644
-14.831,0.6956153063521644
-14.8305,0.6956153063521644
-14.83,0.6956153063521644
-14.8295,0.6838410162396162
-14.829,0.6728516788012379
-14.8285,0.6893356849588054
-14.828,0.7018949277455235
-14.8275,0.712099312509732
-14.827,0.7191638865772609
-14.8265,0.6995400697230139
-14.826,0.6948303536779945
-14.8255,0.6948303536779945
-14.825,0.6956153063521644
-14.8245,0.6948303536779945
-14.824,0.6956153063521644
-14.8235,0.6956153063521644
-14.823,0.6948303536779945
-14.8225,0.6956153063521644
-14.822,0.6956153063521644
-14.8215,0.6948303536779945
-14.821,0.6956153063521644
-14.8205,0.6948303536779945
-14.82,0.7003250223971837
-14.8195,0.6971852117005042
-14.819,0.6893356849588054
-14.8185,0.6807012055429367
-14.818,0.6744215841495776
-14.8175,0.6642171993853692
-14.817,0.6587225306661799
-14.8165,0.6956153063521644
-14.816,0.6948303536779945
-14.8155,0.6956153063521644
-14.815,0.6940454010038246
-14.8145,0.6956153063521644
-14.814,0.6956153063521644
-14.8135,0.6948303536779945
-14.813,0.6948303536779945
-14.8125,0.6650021520595391
-14.812,0.6830560635654463
-14.8115,0.6979701643746741
-14.811,0.7066046437905428
-14.8105,0.7152391232064115
-14.81,0.7081745491388826
-14.8095,0.6940454010038246
-14.809,0.6956153063521644
-14.8085,0.6956153063521644
-14.808,0.6948303536779945
-14.8075,0.6948303536779945
-14.807,0.6956153063521644
-14.8065,0.6948303536779945
-14.806,0.6956153063521644
-14.8055,0.6948303536779945
-14.805,0.6948303536779945
-14.8045,0.6948303536779945
-14.804,0.6956153063521644
-14.8035,0.698755117048844
-14.803,0.6971852117005042
-14.8025,0.691690542981315
-14.802,0.6822711108912765
-14.8015,0.6752065368237475
-14.801,0.6673570100820486
-14.8005,0.6524429092728209
-14.8,0.6885507322846355
-14.7995,0.6956153063521644
-14.799,0.6948303536779945
-14.7985,0.6948303536779945
-14.798,0.6956153063521644
-14.7975,0.6956153063521644
-14.797,0.6948303536779945
-14.7965,0.6948303536779945
-14.796,0.672066726127068
-14.7955,0.6767764421720872
-14.795,0.6924754956554849
-14.7945,0.7034648330938632
-14.794,0.7113143598355621
-14.7935,0.7144541705322416
-14.793,0.6956153063521644
-14.7925,0.6948303536779945
-14.792,0.6956153063521644
-14.7915,0.6948303536779945
-14.791,0.6948303536779945
-14.7905,0.6948303536779945
-14.79,0.6948303536779945
-14.7895,0.6948303536779945
-14.789,0.6948303536779945
-14.7885,0.6948303536779945
-14.788,0.6948303536779945
-14.7875,0.6948303536779945
-14.787,0.6948303536779945
-14.7865,0.7003250223971837
-14.786,0.6924754956554849
-14.7855,0.6846259689137861
-14.785,0.6767764421720872
-14.7845,0.6704968207787282
-14.784,0.65793757799201
-14.7835,0.6736366314754078
-14.783,0.6940454010038246
-14.7825,0.6956153063521644
-14.782,0.6948303536779945
-14.7815,0.6956153063521644
-14.781,0.6956153063521644
-14.7805,0.6948303536779945
-14.78,0.6956153063521644
-14.7795,0.6822711108912765
-14.779,0.6704968207787282
-14.7785,0.6869808269362957
-14.778,0.7011099750713536
-14.7775,0.7081745491388826
-14.777,0.718378933903091
-14.7765,0.698755117048844
-14.776,0.6956153063521644
-14.7755,0.6948303536779945
-14.775,0.6956153063521644
-14.7745,0.6948303536779945
-14.774,0.6956153063521644
-14.7735,0.6948303536779945
-14.773,0.6948303536779945
-14.7725,0.6948303536779945
-14.772,0.6956153063521644
-14.7715,0.6948303536779945
-14.771,0.6948303536779945
-14.7705,0.6948303536779945
-14.77,0.6995400697230139
-14.7695,0.6964002590263343
-14.769,0.6877657796104656
-14.7685,0.6791313001945969
-14.768,0.6736366314754078
-14.7675,0.6626472940370294
-14.767,0.6587225306661799
-14.7665,0.6964002590263343
-14.766,0.6948303536779945
-14.7655,0.6940454010038246
-14.765,0.6956153063521644
-14.7645,0.6956153063521644
-14.764,0.6956153063521644
-14.7635,0.6948303536779945
-14.763,0.6948303536779945
-14.7625,0.6642171993853692
-14.762,0.6838410162396162
-14.7615,0.6979701643746741
-14.761,0.7066046437905428
-14.7605,0.7160240758805814
-14.76,0.7066046437905428
-14.7595,0.6956153063521644
-14.759,0.6964002590263343
-14.7585,0.6948303536779945
-14.758,0.6956153063521644
-14.7575,0.6956153063521644
-14.757,0.6948303536779945
-14.7565,0.6964002590263343
-14.756,0.6948303536779945
-14.7555,0.6956153063521644
-14.755,0.6948303536779945
-14.7545,0.6948303536779945
-14.754,0.6948303536779945
-14.7535,0.698755117048844
-14.753,0.698755117048844
-14.7525,0.6909055903071452
-14.752,0.6822711108912765
-14.7515,0.6752065368237475
-14.751,0.6673570100820486
-14.7505,0.6532278619469908
-14.75,0.6893356849588054
-14.7495,0.6964002590263343
-14.749,0.6956153063521644
-14.7485,0.6948303536779945
-14.748,0.6956153063521644
-14.7475,0.6948303536779945
-14.747,0.6948303536779945
-14.7465,0.6948303536779945
-14.746,0.6728516788012379
-14.7455,0.6767764421720872
-14.745,0.6932604483296548
-14.7445,0.705034738442203
-14.744,0.712099312509732
-14.7435,0.7152391232064115
-14.743,0.6948303536779945
-14.7425,0.6956153063521644
-14.742,0.6948303536779945
-14.7415,0.6956153063521644
-14.741,0.6948303536779945
-14.7405,0.6956153063521644
-14.74,0.6956153063521644
-14.7395,0.6948303536779945
-14.739,0.6948303536779945
-14.7385,0.6956153063521644
-14.738,0.6940454010038246
-14.7375,0.6956153063521644
-14.737,0.6956153063521644
-14.7365,0.6995400697230139
-14.736,0.6940454010038246
-14.7355,0.6861958742621258
-14.735,0.6775613948462571
-14.7345,0.672066726127068
-14.734,0.65793757799201
-14.7335,0.6728516788012379
-14.733,0.6956153063521644
-14.7325,0.6956153063521644
-14.732,0.6956153063521644
-14.7315,0.6956153063521644
-14.731,0.6956153063521644
-14.7305,0.6956153063521644
-14.73,0.6956153063521644
-14.7295,0.6830560635654463
-14.729,0.6704968207787282
-14.7285,0.6901206376329753
-14.728,0.7003250223971837
-14.7275,0.7097444544872223
-14.727,0.7175939812289212
-14.7265,0.698755117048844
-14.726,0.6956153063521644
-14.7255,0.6940454010038246
-14.725,0.6964002590263343
-14.7245,0.6948303536779945
-14.724,0.6956153063521644
-14.7235,0.6956153063521644
-14.723,0.6956153063521644
-14.7225,0.6964002590263343
-14.722,0.6948303536779945
-14.7215,0.6956153063521644
-14.721,0.6948303536779945
-14.7205,0.6956153063521644
-14.72,0.7003250223971837
-14.7195,0.6956153063521644
-14.719,0.6885507322846355
-14.7185,0.6799162528687668
-14.718,0.6736366314754078
-14.7175,0.6626472940370294
-14.717,0.6602924360145197
-14.7165,0.6956153063521644
-14.716,0.6964002590263343
-14.7155,0.6948303536779945
-14.715,0.6948303536779945
-14.7145,0.6956153063521644
-14.714,0.6956153063521644
-14.7135,0.6948303536779945
-14.713,0.6956153063521644
-14.7125,0.6642171993853692
-14.712,0.6846259689137861
-14.7115,0.6964002590263343
-14.711,0.7066046437905428
-14.7105,0.7152391232064115
-14.71,0.7073895964647127
-14.7095,0.6964002590263343
-14.709,0.6948303536779945
-14.7085,0.6956153063521644
-14.708,0.6956153063521644
-14.7075,0.6956153063521644
-14.707,0.6948303536779945
-14.7065,0.6956153063521644
-14.706,0.6956153063521644
-14.7055,0.6948303536779945
-14.705,0.6956153063521644
-14.7045,0.6956153063521644
-14.704,0.6948303536779945
-14.7035,0.698755117048844
-14.703,0.6971852117005042
-14.7025,0.6909055903071452
-14.702,0.6822711108912765
-14.7015,0.6752065368237475
-14.701,0.6665720574078787
-14.7005,0.6532278619469908
-14.7,0.6893356849588054
-14.6995,0.6948303536779945
-14.699,0.6964002590263343
-14.6985,0.6948303536779945
-14.698,0.6948303536779945
-14.6975,0.6956153063521644
-14.697,0.6948303536779945
-14.6965,0.6956153063521644
-14.696,0.672066726127068
-14.6955,0.6759914894979173
-14.695,0.6924754956554849
-14.6945,0.7034648330938632
-14.694,0.7113143598355621
-14.6935,0.7152391232064115
-14.693,0.6956153063521644
-14.6925,0.6948303536779945
-14.692,0.6964002590263343
-14.6915,0.6948303536779945
-14.691,0.6964002590263343
-14.6905,0.6956153063521644
-14.69,0.6956153063521644
-14.6895,0.6956153063521644
-14.689,0.6948303536779945
-14.6885,0.6956153063521644
-14.688,0.6948303536779945
-14.6875,0.6948303536779945
-14.687,0.6956153063521644
-14.6865,0.6995400697230139
-14.686,0.6932604483296548
-14.6855,0.6846259689137861
-14.685,0.6767764421720872
-14.6845,0.6704968207787282
-14.684,0.6563676726436702
-14.6835,0.6736366314754078
-14.683,0.6956153063521644
-14.6825,0.6948303536779945
-14.682,0.6964002590263343
-14.6815,0.6948303536779945
-14.681,0.6948303536779945
-14.6805,0.6948303536779945
-14.68,0.6948303536779945
-14.6795,0.6814861582171066
-14.679,0.6704968207787282
-14.6785,0.6885507322846355
-14.678,0.6995400697230139
-14.6775,0.7089595018130525
-14.677,0.7175939812289212
-14.6765,0.698755117048844
-14.676,0.6956153063521644
-14.6755,0.6948303536779945
-14.675,0.6956153063521644
-14.6745,0.6956153063521644
-14.674,0.6956153063521644
-14.6735,0.6948303536779945
-14.673,0.6948303536779945
-14.6725,0.6948303536779945
-14.672,0.6956153063521644
-14.6715,0.6948303536779945
-14.671,0.6956153063521644
-14.6705,0.6956153063521644
-14.67,0.698755117048844
-14.6695,0.6956153063521644
-14.669,0.6877657796104656
-14.6685,0.6791313001945969
-14.668,0.6728516788012379
-14.6675,0.6618623413628595
-14.667,0.6595074833403498
-14.6665,0.6956153063521644
-14.666,0.6956153063521644
-14.6655,0.6964002590263343
-14.665,0.6964002590263343
-14.6645,0.6956153063521644
-14.664,0.6956153063521644
-14.6635,0.6956153063521644
-14.663,0.6948303536779945
-14.6625,0.6634322467111993
-14.662,0.6830560635654463
-14.6615,0.6971852117005042
-14.661,0.7066046437905428
-14.6605,0.7144541705322416
-14.66,0.7073895964647127
-14.6595,0.6956153063521644
-14.659,0.6956153063521644
-14.6585,0.6964002590263343
-14.658,0.6956153063521644
-14.6575,0.6956153063521644
-14.657,0.6956153063521644
-14.6565,0.6956153063521644
-14.656,0.6948303536779945
-14.6555,0.6964002590263343
-14.655,0.6948303536779945
-14.6545,0.6956153063521644
-14.654,0.6948303536779945
-14.6535,0.698755117048844
-14.653,0.6964002590263343
-14.6525,0.6901206376329753
-14.652,0.6814861582171066
-14.6515,0.6752065368237475
-14.651,0.6673570100820486
-14.6505,0.6524429092728209
-14.65,0.6909055903071452
-14.6495,0.6948303536779945
-14.649,0.6964002590263343
-14.6485,0.6956153063521644
-14.648,0.6956153063521644
-14.6475,0.6956153063521644
-14.647,0.6948303536779945
-14.6465,0.6956153063521644
-14.646,0.6712817734528981
-14.6455,0.6767764421720872
-14.645,0.6932604483296548
-14.6445,0.7026798804196934
-14.644,0.712099312509732
-14.6435,0.7144541705322416
-14.643,0.6964002590263343
-14.6425,0.6956153063521644
-14.642,0.6964002590263343
-14.6415,0.6956153063521644
-14.641,0.6956153063521644
-14.6405,0.6956153063521644
-14.64,0.6956153063521644
-14.6395,0.6956153063521644
-14.639,0.6956153063521644
-14.6385,0.6956153063521644
-14.638,0.6948303536779945
-14.6375,0.6956153063521644
-14.637,0.6956153063521644
-14.6365,0.698755117048844
-14.636,0.6932604483296548
-14.6355,0.6838410162396162
-14.635,0.6767764421720872
-14.6345,0.6697118681045583
-14.634,0.6563676726436702
-14.6335,0.6744215841495776
-14.633,0.6956153063521644
-14.6325,0.6964002590263343
-14.632,0.6948303536779945
-14.6315,0.6964002590263343
-14.631,0.6948303536779945
-14.6305,0.6956153063521644
-14.63,0.6956153063521644
-14.6295,0.6830560635654463
-14.629,0.6697118681045583
-14.6285,0.6885507322846355
-14.628,0.7003250223971837
-14.6275,0.7081745491388826
-14.627,0.7168090285547513
-14.6265,0.6995400697230139
-14.626,0.6948303536779945
-14.6255,0.6956153063521644
-14.625,0.6948303536779945
-14.6245,0.6964002590263343
-14.624,0.6956153063521644
-14.6235,0.6956153063521644
-14.623,0.6964002590263343
-14.6225,0.6948303536779945
-14.622,0.6956153063521644
-14.6215,0.6948303536779945
-14.621,0.6948303536779945
-14.6205,0.6956153063521644
-14.62,0.698755117048844
-14.6195,0.6948303536779945
-14.619,0.6877657796104656
-14.6185,0.6791313001945969
-14.618,0.6728516788012379
-14.6175,0.6618623413628595
-14.617,0.6602924360145197
-14.6165,0.6948303536779945
-14.616,0.6956153063521644
-14.6155,0.6956153063521644
-14.615,0.6956153063521644
-14.6145,0.6940454010038246
-14.614,0.6964002590263343
-14.6135,0.6948303536779945
-14.613,0.6956153063521644
-14.6125,0.6642171993853692
-14.612,0.6830560635654463
-14.6115,0.6971852117005042
-14.611,0.7058196911163729
-14.6105,0.7152391232064115
-14.61,0.7073895964647127
-14.6095,0.6956153063521644
-14.609,0.6964002590263343
-14.6085,0.6956153063521644
-14.608,0.6956153063521644
-14.6075,0.6956153063521644
-14.607,0.6948303536779945
-14.6065,0.6956153063521644
-14.606,0.6956153063521644
-14.6055,0.6948303536779945
-14.605,0.6956153063521644
-14.6045,0.6956153063521644
-14.604,0.6956153063521644
-14.6035,0.698755117048844
-14.603,0.6964002590263343
-14.6025,0.6901206376329753
-14.602,0.6807012055429367
-14.6015,0.6744215841495776
-14.601,0.6665720574078787
-14.6005,0.6508730039244811
-14.6,0.691690542981315
-14.5995,0.6956153063521644
-14.599,0.6956153063521644
-14.5985,0.6964002590263343
-14.598,0.6948303536779945
-14.5975,0.6956153063521644
-14.597,0.6956153063521644
-14.5965,0.6956153063521644
-14.596,0.672066726127068
-14.5955,0.6759914894979173
-14.595,0.6932604483296548
-14.5945,0.7034648330938632
-14.594,0.712099312509732
-14.5935,0.7128842651839018
-14.593,0.6964002590263343
-14.5925,0.6956153063521644
-14.592,0.6948303536779945
-14.5915,0.6956153063521644
-14.591,0.6956153063521644
-14.5905,0.6956153063521644
-14.59,0.6956153063521644
-14.5895,0.6956153063521644
-14.589,0.6956153063521644
-14.5885,0.6956153063521644
-14.588,0.6948303536779945
-14.5875,0.6956153063521644
-14.587,0.6956153063521644
-14.5865,0.698755117048844
-14.586,0.6924754956554849
-14.5855,0.6838410162396162
-14.585,0.6767764421720872
-14.5845,0.6697118681045583
-14.584,0.6571526253178401
-14.5835,0.6736366314754078
-14.583,0.6956153063521644
-14.5825,0.6964002590263343
-14.582,0.6964002590263343
-14.5815,0.6956153063521644
-14.581,0.6956153063521644
-14.5805,0.6956153063521644
-14.58,0.6956153063521644
-14.5795,0.6807012055429367
-14.579,0.6704968207787282
-14.5785,0.6885507322846355
-14.578,0.6995400697230139
-14.5775,0.7097444544872223
-14.577,0.7175939812289212
-14.5765,0.698755117048844
-14.576,0.6956153063521644
-14.5755,0.6956153063521644
-14.575,0.6964002590263343
-14.5745,0.6956153063521644
-14.574,0.6964002590263343
-14.5735,0.6948303536779945
-14.573,0.6956153063521644
-14.5725,0.6948303536779945
-14.572,0.6956153063521644
-14.5715,0.6956153063521644
-14.571,0.6948303536779945
-14.5705,0.6956153063521644
-14.57,0.698755117048844
-14.5695,0.6948303536779945
-14.569,0.6869808269362957
-14.5685,0.678346347520427
-14.568,0.6728516788012379
-14.5675,0.6610773886886896
-14.567,0.6602924360145197
-14.5665,0.6956153063521644
-14.566,0.6964002590263343
-14.5655,0.6956153063521644
-14.565,0.6956153063521644
-14.5645,0.6948303536779945
-14.564,0.6956153063521644
-14.5635,0.6956153063521644
-14.563,0.6948303536779945
-14.5625,0.6642171993853692
-14.562,0.6838410162396162
-14.5615,0.6964002590263343
-14.561,0.7066046437905428
-14.5605,0.7152391232064115
-14.56,0.7066046437905428
-14.5595,0.6956153063521644
-14.559,0.6956153063521644
-14.5585,0.6948303536779945
-14.558,0.6964002590263343
-14.5575,0.6956153063521644
-14.557,0.6948303536779945
-14.5565,0.6964002590263343
-14.556,0.6956153063521644
-14.5555,0.6956153063521644
-14.555,0.6956153063521644
-14.5545,0.6956153063521644
-14.554,0.6956153063521644
-14.5535,0.6979701643746741
-14.553,0.6979701643746741
-14.5525,0.6909055903071452
-14.552,0.6814861582171066
-14.5515,0.6759914894979173
-14.551,0.6665720574078787
-14.5505,0.6524429092728209
-14.55,0.6909055903071452
-14.5495,0.6956153063521644
-14.549,0.6948303536779945
-14.5485,0.6956153063521644
-14.548,0.6964002590263343
-14.5475,0.6956153063521644
-14.547,0.6948303536779945
-14.5465,0.6964002590263343
-14.546,0.6712817734528981
-14.5455,0.6767764421720872
-14.545,0.6948303536779945
-14.5445,0.7042497857680331
-14.544,0.7128842651839018
-14.5435,0.7152391232064115
-14.543,0.6948303536779945
-14.5425,0.6964002590263343
-14.542,0.6948303536779945
-14.5415,0.6964002590263343
-14.541,0.6948303536779945
-14.5405,0.6956153063521644
-14.54,0.6948303536779945
-14.5395,0.6956153063521644
-14.539,0.6948303536779945
-14.5385,0.6956153063521644
-14.538,0.6948303536779945
-14.5375,0.6948303536779945
-14.537,0.6956153063521644
-14.5365,0.6995400697230139
-14.536,0.6924754956554849
-14.5355,0.6846259689137861
-14.535,0.6775613948462571
-14.5345,0.6712817734528981
-14.534,0.6571526253178401
-14.5335,0.6744215841495776
-14.533,0.6964002590263343
-14.5325,0.6956153063521644
-14.532,0.6956153063521644
-14.5315,0.6964002590263343
-14.531,0.6956153063521644
-14.5305,0.6956153063521644
-14.53,0.6956153063521644
-14.5295,0.6814861582171066
-14.529,0.6712817734528981
-14.5285,0.6893356849588054
-14.528,0.7011099750713536
-14.5275,0.7089595018130525
-14.527,0.718378933903091
-14.5265,0.6979701643746741
-14.526,0.6956153063521644
-14.5255,0.6956153063521644
-14.525,0.6964002590263343
-14.5245,0.6956153063521644
-14.524,0.6956153063521644
-14.5235,0.6956153063521644
-14.523,0.6956153063521644
-14.5225,0.6956153063521644
-14.522,0.6956153063521644
-14.5215,0.6956153063521644
-14.521,0.6956153063521644
-14.5205,0.6948303536779945
-14.52,0.6995400697230139
-14.5195,0.6940454010038246
-14.519,0.6869808269362957
-14.5185,0.678346347520427
-14.518,0.672066726127068
-14.5175,0.6602924360145197
-14.517,0.6587225306661799
-14.5165,0.6964002590263343
-14.516,0.6948303536779945
-14.5155,0.6956153063521644
-14.515,0.6956153063521644
-14.5145,0.6956153063521644
-14.514,0.6956153063521644
-14.5135,0.6964002590263343
-14.513,0.6948303536779945
-14.5125,0.6626472940370294
-14.512,0.6814861582171066
-14.5115,0.6964002590263343
-14.511,0.7042497857680331
-14.5105,0.7136692178580717
-14.51,0.7066046437905428
-14.5095,0.6964002590263343
-14.509,0.6956153063521644
-14.5085,0.6971852117005042
-14.508,0.6964002590263343
-14.5075,0.6964002590263343
-14.507,0.6964002590263343
-14.5065,0.6956153063521644
-14.506,0.6956153063521644
-14.5055,0.6964002590263343
-14.505,0.6956153063521644
-14.5045,0.6956153063521644
-14.504,0.6956153063521644
-14.5035,0.6979701643746741
-14.503,0.6948303536779945
-14.5025,0.6893356849588054
-14.502,0.6799162528687668
-14.5015,0.6736366314754078
-14.501,0.6650021520595391
-14.5005,0.6508730039244811
-14.5,0.6909055903071452
-14.4995,0.6964002590263343
-14.499,0.6956153063521644
-14.4985,0.6956153063521644
-14.498,0.6956153063521644
-14.4975,0.6948303536779945
-14.497,0.6956153063521644
-14.4965,0.6956153063521644
-14.496,0.6704968207787282
-14.4955,0.6759914894979173
-14.495,0.6924754956554849
-14.4945,0.7034648330938632
-14.494,0.7097444544872223
-14.4935,0.7136692178580717
-14.493,0.6956153063521644
-14.4925,0.6964002590263343
-14.492,0.6956153063521644
-14.4915,0.6956153063521644
-14.491,0.6948303536779945
-14.4905,0.6948303536779945
-14.49,0.6956153063521644
-14.4895,0.6956153063521644
-14.489,0.6948303536779945
-14.4885,0.6964002590263343
-14.488,0.6948303536779945
-14.4875,0.6956153063521644
-14.487,0.6964002590263343
-14.4865,0.6979701643746741
-14.486,0.6909055903071452
-14.4855,0.6822711108912765
-14.485,0.6752065368237475
-14.4845,0.6689269154303884
-14.484,0.6547977672953306
-14.4835,0.6752065368237475
-14.483,0.6948303536779945
-14.4825,0.6971852117005042
-14.482,0.6948303536779945
-14.4815,0.6956153063521644
-14.481,0.6964002590263343
-14.4805,0.6956153063521644
-14.48,0.6956153063521644
-14.4795,0.6807012055429367
-14.479,0.6697118681045583
-14.4785,0.6885507322846355
-14.478,0.698755117048844
-14.4775,0.7073895964647127
-14.477,0.7160240758805814
-14.4765,0.698755117048844
-14.476,0.6956153063521644
-14.4755,0.6956153063521644
-14.475,0.6956153063521644
-14.4745,0.6964002590263343
-14.474,0.6964002590263343
-14.4735,0.6964002590263343
-14.473,0.6956153063521644
-14.4725,0.6964002590263343
-14.472,0.6956153063521644
-14.4715,0.6964002590263343
-14.471,0.6956153063521644
-14.4705,0.6948303536779945
-14.47,0.698755117048844
-14.4695,0.6932604483296548
-14.469,0.6854109215879559
-14.4685,0.6775613948462571
-14.468,0.6712817734528981
-14.4675,0.6602924360145197
-14.467,0.6610773886886896
-14.4665,0.6956153063521644
-14.466,0.6964002590263343
-14.4655,0.6964002590263343
-14.465,0.6971852117005042
-14.4645,0.6956153063521644
-14.464,0.6964002590263343
-14.4635,0.6964002590263343
-14.463,0.6948303536779945
-14.4625,0.6634322467111993
-14.462,0.6814861582171066
-14.4615,0.6964002590263343
-14.461,0.705034738442203
-14.4605,0.7136692178580717
-14.46,0.705034738442203
-14.4595,0.6971852117005042
-14.459,0.6948303536779945
-14.4585,0.6964002590263343
-14.458,0.6964002590263343
-14.4575,0.6964002590263343
-14.457,0.6964002590263343
-14.4565,0.6956153063521644
-14.456,0.6964002590263343
-14.4555,0.6956153063521644
-14.455,0.6964002590263343
-14.4545,0.6956153063521644
-14.454,0.6956153063521644
-14.4535,0.6979701643746741
-14.453,0.6964002590263343
-14.4525,0.6885507322846355
-14.452,0.6807012055429367
-14.4515,0.6736366314754078
-14.451,0.6650021520595391
-14.4505,0.6508730039244811
-14.45,0.6932604483296548
-14.4495,0.6956153063521644
-14.449,0.6971852117005042
-14.4485,0.6956153063521644
-14.448,0.6964002590263343
-14.4475,0.6964002590263343
-14.447,0.6956153063521644
-14.4465,0.6964002590263343
-14.446,0.6697118681045583
-14.4455,0.6775613948462571
-14.445,0.691690542981315
-14.4445,0.7026798804196934
-14.444,0.712099312509732
-14.4435,0.7136692178580717
-14.443,0.6964002590263343
-14.4425,0.6964002590263343
-14.442,0.6956153063521644
-14.4415,0.6964002590263343
-14.441,0.6956153063521644
-14.4405,0.6964002590263343
-14.44,0.6956153063521644
-14.4395,0.6964002590263343
-14.439,0.6956153063521644
-14.4385,0.6964002590263343
-14.438,0.6956153063521644
-14.4375,0.6971852117005042
-14.437,0.6979701643746741
-14.4365,0.7018949277455235
-14.436,0.6964002590263343
-14.4355,0.6893356849588054
-14.435,0.6814861582171066
-14.4345,0.6759914894979173
-14.434,0.6626472940370294
-14.4335,0.6775613948462571
-14.433,0.6964002590263343
-14.4325,0.6964002590263343
-14.432,0.6956153063521644
-14.4315,0.6956153063521644
-14.431,0.6964002590263343
-14.4305,0.6956153063521644
-14.43,0.6964002590263343
-14.4295,0.6869808269362957
-14.429,0.6854109215879559
-14.4285,0.7042497857680331
-14.428,0.7160240758805814
-14.4275,0.72544350797062
-14.427,0.7348629400606586
-14.4265,0.7003250223971837
-14.426,0.6948303536779945
-14.4255,0.6956153063521644
-14.425,0.6956153063521644
-14.4245,0.6948303536779945
-14.424,0.6956153063521644
-14.4235,0.6956153063521644
-14.423,0.6956153063521644
-14.4225,0.6956153063521644
-14.422,0.6948303536779945
-14.4215,0.6956153063521644
-14.421,0.6948303536779945
-14.4205,0.6948303536779945
-14.42,0.7207337919256007
-14.4195,0.7215187445997706
-14.419,0.7128842651839018
-14.4185,0.7058196911163729
-14.418,0.698755117048844
-14.4175,0.6877657796104656
-14.417,0.6799162528687668
-14.4165,0.6948303536779945
-14.416,0.6948303536779945
-14.4155,0.6932604483296548
-14.415,0.6948303536779945
-14.4145,0.6940454010038246
-14.414,0.6940454010038246
-14.4135,0.6948303536779945
-14.413,0.6940454010038246
-14.4125,0.6877657796104656
-14.412,0.7066046437905428
-14.4115,0.7191638865772609
-14.411,0.7285833186672995
-14.4105,0.7356478927348284
-14.41,0.7128842651839018
-14.4095,0.6940454010038246
-14.409,0.6940454010038246
-14.4085,0.6940454010038246
-14.408,0.6940454010038246
-14.4075,0.6940454010038246
-14.407,0.6932604483296548
-14.4065,0.6940454010038246
-14.406,0.6940454010038246
-14.4055,0.6932604483296548
-14.405,0.6932604483296548
-14.4045,0.6940454010038246
-14.404,0.6940454010038246
-14.4035,0.6979701643746741
-14.403,0.6971852117005042
-14.4025,0.6893356849588054
-14.402,0.678346347520427
-14.4015,0.6704968207787282
-14.401,0.6595074833403498
-14.4005,0.6422385245086124
-14.4,0.6909055903071452
-14.3995,0.6940454010038246
-14.399,0.6932604483296548
-14.3985,0.6940454010038246
-14.398,0.6940454010038246
-14.3975,0.6940454010038246
-14.397,0.6948303536779945
-14.3965,0.6940454010038246
-14.396,0.6610773886886896
-14.3955,0.6650021520595391
-14.395,0.6822711108912765
-14.3945,0.691690542981315
-14.394,0.7003250223971837
-14.3935,0.705034738442203
-14.393,0.6940454010038246
-14.3925,0.6956153063521644
-14.392,0.6940454010038246
-14.3915,0.6948303536779945
-14.391,0.6956153063521644
-14.3905,0.6948303536779945
-14.39,0.6948303536779945
-14.3895,0.6940454010038246
-14.389,0.6948303536779945
-14.3885,0.6956153063521644
-14.388,0.6948303536779945
-14.3875,0.6940454010038246
-14.387,0.6940454010038246
-14.3865,0.6940454010038246
-14.386,0.6869808269362957
-14.3855,0.6791313001945969
-14.385,0.672066726127068
-14.3845,0.6657871047337089
-14.384,0.6524429092728209
-14.3835,0.6752065368237475
-14.383,0.6940454010038246
-14.3825,0.6956153063521644
-14.382,0.6948303536779945
-14.3815,0.6948303536779945
-14.381,0.6948303536779945
-14.3805,0.6956153063521644
-14.38,0.6940454010038246
-14.3795,0.6807012055429367
-14.379,0.6681419627562185
-14.3785,0.6861958742621258
-14.378,0.6979701643746741
-14.3775,0.7073895964647127
-14.377,0.7144541705322416
-14.3765,0.6979701643746741
-14.376,0.6948303536779945
-14.3755,0.6948303536779945
-14.375,0.6948303536779945
-14.3745,0.6940454010038246
-14.374,0.6956153063521644
-14.3735,0.6940454010038246
-14.373,0.6948303536779945
-14.3725,0.6956153063521644
-14.372,0.6948303536779945
-14.3715,0.6948303536779945
-14.371,0.6940454010038246
-14.3705,0.6948303536779945
-14.37,0.6964002590263343
-14.3695,0.6924754956554849
-14.369,0.6846259689137861
-14.3685,0.6759914894979173
-14.368,0.6697118681045583
-14.3675,0.6587225306661799
-14.367,0.6602924360145197
-14.3665,0.6940454010038246
-14.366,0.6964002590263343
-14.3655,0.6948303536779945
-14.365,0.6948303536779945
-14.3645,0.6956153063521644
-14.364,0.6948303536779945
-14.3635,0.6948303536779945
-14.363,0.6924754956554849
-14.3625,0.6618623413628595
-14.362,0.6822711108912765
-14.3615,0.6940454010038246
-14.361,0.705034738442203
-14.3605,0.712099312509732
-14.36,0.705034738442203
-14.3595,0.6956153063521644
-14.359,0.6948303536779945
-14.3585,0.6956153063521644
-14.358,0.6948303536779945
-14.3575,0.6948303536779945
-14.357,0.6956153063521644
-14.3565,0.6956153063521644
-14.356,0.6948303536779945
-14.3555,0.6956153063521644
-14.355,0.6940454010038246
-14.3545,0.6948303536779945
-14.354,0.6956153063521644
-14.3535,0.6971852117005042
-14.353,0.6948303536779945
-14.3525,0.6885507322846355
-14.352,0.6799162528687668
-14.3515,0.6736366314754078
-14.351,0.6642171993853692
-14.3505,0.6500880512503112
-14.35,0.6924754956554849
-14.3495,0.6956153063521644
-14.349,0.6948303536779945
-14.3485,0.6956153063521644
-14.348,0.6956153063521644
-14.3475,0.6956153063521644
-14.347,0.6956153063521644
-14.3465,0.6948303536779945
-14.346,0.6689269154303884
-14.3455,0.6759914894979173
-14.345,0.6932604483296548
-14.3445,0.7011099750713536
-14.344,0.7113143598355621
-14.3435,0.7113143598355621
-14.343,0.6956153063521644
-14.3425,0.6948303536779945
-14.342,0.6956153063521644
-14.3415,0.6956153063521644
-14.341,0.6964002590263343
-14.3405,0.6948303536779945
-14.34,0.6948303536779945
-14.3395,0.6956153063521644
-14.339,0.6964002590263343
-14.3385,0.6948303536779945
-14.338,0.6948303536779945
-14.3375,0.6956153063521644
-14.337,0.6956153063521644
-14.3365,0.6971852117005042
-14.336,0.691690542981315
-14.3355,0.6838410162396162
-14.335,0.6752065368237475
-14.3345,0.6681419627562185
-14.334,0.6547977672953306
-14.3335,0.6767764421720872
-14.333,0.6956153063521644
-14.3325,0.6956153063521644
-14.332,0.6948303536779945
-14.3315,0.6956153063521644
-14.331,0.6956153063521644
-14.3305,0.6956153063521644
-14.33,0.6956153063521644
-14.3295,0.6791313001945969
-14.329,0.6704968207787282
-14.3285,0.6885507322846355
-14.328,0.7003250223971837
-14.3275,0.7081745491388826
-14.327,0.7168090285547513
-14.3265,0.6971852117005042
-14.326,0.6964002590263343
-14.3255,0.6956153063521644
-14.325,0.6956153063521644
-14.3245,0.6956153063521644
-14.324,0.6956153063521644
-14.3235,0.6956153063521644
-14.323,0.6948303536779945
-14.3225,0.6948303536779945
-14.322,0.6956153063521644
-14.3215,0.6948303536779945
-14.321,0.6964002590263343
-14.3205,0.6948303536779945
-14.32,0.698755117048844
-14.3195,0.6940454010038246
-14.319,0.6861958742621258
-14.3185,0.6775613948462571
-14.318,0.6712817734528981
-14.3175,0.6602924360145197
-14.317,0.6618623413628595
-14.3165,0.6948303536779945
-14.316,0.6956153063521644
-14.3155,0.6956153063521644
-14.315,0.6956153063521644
-14.3145,0.6964002590263343
-14.314,0.6964002590263343
-14.3135,0.6948303536779945
-14.313,0.6932604483296548
-14.3125,0.6650021520595391
-14.312,0.6830560635654463
-14.3115,0.6971852117005042
-14.311,0.7066046437905428
-14.3105,0.7160240758805814
-14.31,0.705034738442203
-14.3095,0.6964002590263343
-14.309,0.6956153063521644
-14.3085,0.6964002590263343
-14.308,0.6956153063521644
-14.3075,0.6964002590263343
-14.307,0.6956153063521644
-14.3065,0.6956153063521644
-14.306,0.6956153063521644
-14.3055,0.6964002590263343
-14.305,0.6956153063521644
-14.3045,0.6956153063521644
-14.304,0.6956153063521644
-14.3035,0.698755117048844
-14.303,0.6964002590263343
-14.3025,0.6901206376329753
-14.302,0.6822711108912765
-14.3015,0.6752065368237475
-14.301,0.6665720574078787
-14.3005,0.651657956598651
-14.3,0.6932604483296548
-14.2995,0.6956153063521644
-14.299,0.6964002590263343
-14.2985,0.6956153063521644
-14.298,0.6956153063521644
-14.2975,0.6948303536779945
-14.297,0.6964002590263343
-14.2965,0.6956153063521644
-14.296,0.6712817734528981
-14.2955,0.678346347520427
-14.295,0.6932604483296548
-14.2945,0.7042497857680331
-14.294,0.7128842651839018
-14.2935,0.7136692178580717
-14.293,0.6948303536779945
-14.2925,0.6964002590263343
-14.292,0.6964002590263343
-14.2915,0.6956153063521644
-14.291,0.6956153063521644
-14.2905,0.6956153063521644
-14.29,0.6956153063521644
-14.2895,0.6956153063521644
-14.289,0.6948303536779945
-14.2885,0.6956153063521644
-14.288,0.6956153063521644
-14.2875,0.6948303536779945
-14.287,0.6964002590263343
-14.2865,0.6995400697230139
-14.286,0.6924754956554849
-14.2855,0.6846259689137861
-14.285,0.6775613948462571
-14.2845,0.6704968207787282
-14.284,0.6571526253178401
-14.2835,0.6775613948462571
-14.283,0.6956153063521644
-14.2825,0.6948303536779945
-14.282,0.6956153063521644
-14.2815,0.6948303536779945
-14.281,0.6956153063521644
-14.2805,0.6948303536779945
-14.28,0.6956153063521644
-14.2795,0.6807012055429367
-14.279,0.672066726127068
-14.2785,0.6901206376329753
-14.278,0.7011099750713536
-14.2775,0.7105294071613922
-14.277,0.7175939812289212
-14.2765,0.6979701643746741
-14.276,0.6948303536779945
-14.2755,0.6956153063521644
-14.275,0.6956153063521644
-14.2745,0.6956153063521644
-14.274,0.6956153063521644
-14.2735,0.6956153063521644
-14.273,0.6956153063521644
-14.2725,0.6948303536779945
-14.272,0.6948303536779945
-14.2715,0.6956153063521644
-14.271,0.6948303536779945
-14.2705,0.6948303536779945
-14.27,0.7018949277455235
-14.2695,0.6956153063521644
-14.269,0.6885507322846355
-14.2685,0.6799162528687668
-14.268,0.6744215841495776
-14.2675,0.6634322467111993
-14.267,0.6642171993853692
-14.2665,0.6956153063521644
-14.266,0.6956153063521644
-14.2655,0.6956153063521644
-14.265,0.6964002590263343
-14.2645,0.6956153063521644
-14.264,0.6964002590263343
-14.2635,0.6956153063521644
-14.263,0.6932604483296548
-14.2625,0.6673570100820486
-14.262,0.6869808269362957
-14.2615,0.6995400697230139
-14.261,0.7105294071613922
-14.2605,0.7175939812289212
-14.26,0.7066046437905428
-14.2595,0.6948303536779945
-14.259,0.6956153063521644
-14.2585,0.6948303536779945
-14.258,0.6964002590263343
-14.2575,0.6956153063521644
-14.257,0.6940454010038246
-14.2565,0.6964002590263343
-14.256,0.6956153063521644
-14.2555,0.6948303536779945
-14.255,0.6956153063521644
-14.2545,0.6948303536779945
-14.254,0.6956153063521644
-14.2535,0.7011099750713536
-14.253,0.6995400697230139
-14.2525,0.6924754956554849
-14.252,0.6846259689137861
-14.2515,0.6775613948462571
-14.251,0.6689269154303884
-14.2505,0.6540128146211607
-14.25,0.6948303536779945
-14.2495,0.6956153063521644
-14.249,0.6956153063521644
-14.2485,0.6956153063521644
-14.248,0.6956153063521644
-14.2475,0.6940454010038246
-14.247,0.6956153063521644
-14.2465,0.6956153063521644
-14.246,0.6728516788012379
-14.2455,0.6822711108912765
-14.245,0.6971852117005042
-14.2445,0.7073895964647127
-14.244,0.7152391232064115
-14.2435,0.7160240758805814
-14.243,0.6956153063521644
-14.2425,0.6948303536779945
-14.242,0.6956153063521644
-14.2415,0.6956153063521644
-14.241,0.6948303536779945
-14.2405,0.6956153063521644
-14.24,0.6948303536779945
-14.2395,0.6948303536779945
-14.239,0.6948303536779945
-14.2385,0.6948303536779945
-14.238,0.6956153063521644
-14.2375,0.6956153063521644
-14.237,0.6979701643746741
-14.2365,0.7018949277455235
-14.236,0.6956153063521644
-14.2355,0.6877657796104656
-14.235,0.6791313001945969
-14.2345,0.6744215841495776
-14.234,0.6602924360145197
-14.2335,0.6791313001945969
-14.233,0.6948303536779945
-14.2325,0.6948303536779945
-14.232,0.6964002590263343
-14.2315,0.6940454010038246
-14.231,0.6948303536779945
-14.2305,0.6948303536779945
-14.23,0.6948303536779945
-14.2295,0.6822711108912765
-14.229,0.6752065368237475
-14.2285,0.6940454010038246
-14.228,0.7042497857680331
-14.2275,0.7136692178580717
-14.227,0.7230886499481103
-14.2265,0.6964002590263343
-14.226,0.6948303536779945
-14.2255,0.6964002590263343
-14.225,0.6948303536779945
-14.2245,0.6956153063521644
-14.224,0.6956153063521644
-14.2235,0.6956153063521644
-14.223,0.6948303536779945
-14.2225,0.6956153063521644
-14.222,0.6956153063521644
-14.2215,0.6956153063521644
-14.221,0.6940454010038246
-14.2205,0.6956153063521644
-14.22,0.7026798804196934
-14.2195,0.698755117048844
-14.219,0.6909055903071452
-14.2185,0.6830560635654463
-14.218,0.6767764421720872
-14.2175,0.6650021520595391
-14.217,0.6657871047337089
-14.2165,0.6948303536779945
-14.216,0.6964002590263343
-14.2155,0.6948303536779945
-14.215,0.6940454010038246
-14.2145,0.6956153063521644
-14.214,0.6948303536779945
-14.2135,0.6948303536779945
-14.213,0.6909055903071452
-14.2125,0.6689269154303884
-14.212,0.6877657796104656
-14.2115,0.7011099750713536
-14.211,0.7105294071613922
-14.2105,0.7191638865772609
-14.21,0.7066046437905428
-14.2095,0.6948303536779945
-14.209,0.6956153063521644
-14.2085,0.6948303536779945
-14.208,0.6956153063521644
-14.2075,0.6948303536779945
-14.207,0.6948303536779945
-14.2065,0.6956153063521644
-14.206,0.6948303536779945
-14.2055,0.6948303536779945
-14.205,0.6956153063521644
-14.2045,0.6948303536779945
-14.204,0.6948303536779945
-14.2035,0.7003250223971837
-14.203,0.6995400697230139
-14.2025,0.6940454010038246
-14.202,0.6846259689137861
-14.2015,0.6775613948462571
-14.201,0.6681419627562185
-14.2005,0.6540128146211607
-14.2,0.6940454010038246
-14.1995,0.6948303536779945
-14.199,0.6948303536779945
-14.1985,0.6956153063521644
-14.198,0.6948303536779945
-14.1975,0.6948303536779945
-14.197,0.6948303536779945
-14.1965,0.6956153063521644
-14.196,0.672066726127068
-14.1955,0.6807012055429367
-14.195,0.6956153063521644
-14.1945,0.7066046437905428
-14.194,0.7160240758805814
-14.1935,0.7144541705322416
-14.193,0.6948303536779945
-14.1925,0.6964002590263343
-14.192,0.6948303536779945
-14.1915,0.6956153063521644
-14.191,0.6948303536779945
-14.1905,0.6956153063521644
-14.19,0.6956153063521644
-14.1895,0.6948303536779945
-14.189,0.6956153063521644
-14.1885,0.6956153063521644
-14.188,0.6948303536779945
-14.1875,0.6948303536779945
-14.187,0.6979701643746741
-14.1865,0.7003250223971837
-14.186,0.6956153063521644
-14.1855,0.6854109215879559
-14.185,0.6791313001945969
-14.1845,0.672066726127068
-14.184,0.65793757799201
-14.1835,0.6791313001945969
-14.183,0.6948303536779945
-14.1825,0.6948303536779945
-14.182,0.6948303536779945
-14.1815,0.6948303536779945
-14.181,0.6956153063521644
-14.1805,0.6948303536779945
-14.18,0.6948303536779945
-14.1795,0.6807012055429367
-14.179,0.6736366314754078
-14.1785,0.6909055903071452
-14.178,0.7034648330938632
-14.1775,0.7097444544872223
-14.177,0.7199488392514308
-14.1765,0.6964002590263343
-14.176,0.6956153063521644
-14.1755,0.6948303536779945
-14.175,0.6964002590263343
-14.1745,0.6948303536779945
-14.174,0.6956153063521644
-14.1735,0.6940454010038246
-14.173,0.6956153063521644
-14.1725,0.6948303536779945
-14.172,0.6940454010038246
-14.1715,0.6956153063521644
-14.171,0.6948303536779945
-14.1705,0.6948303536779945
-14.17,0.7011099750713536
-14.1695,0.6956153063521644
-14.169,0.6885507322846355
-14.1685,0.6791313001945969
-14.168,0.6736366314754078
-14.1675,0.6610773886886896
-14.167,0.6642171993853692
-14.1665,0.6948303536779945
-14.166,0.6956153063521644
-14.1655,0.6956153063521644
-14.165,0.6956153063521644
-14.1645,0.6956153063521644
-14.164,0.6948303536779945
-14.1635,0.6956153063521644
-14.163,0.6909055903071452
-14.1625,0.6665720574078787
-14.162,0.6854109215879559
-14.1615,0.6979701643746741
-14.161,0.7073895964647127
-14.1605,0.7152391232064115
-14.16,0.7042497857680331
-14.1595,0.6948303536779945
-14.159,0.6948303536779945
-14.1585,0.6956153063521644
-14.158,0.6948303536779945
-14.1575,0.6948303536779945
-14.157,0.6940454010038246
-14.1565,0.6948303536779945
-14.156,0.6956153063521644
-14.1555,0.6948303536779945
-14.155,0.6956153063521644
-14.1545,0.6940454010038246
-14.154,0.6948303536779945
-14.1535,0.6979701643746741
-14.153,0.6971852117005042
-14.1525,0.6885507322846355
-14.152,0.6807012055429367
-14.1515,0.6744215841495776
-14.151,0.6657871047337089
-14.1505,0.651657956598651
-14.15,0.6932604483296548
-14.1495,0.6956153063521644
-14.149,0.6948303536779945
-14.1485,0.6956153063521644
-14.148,0.6948303536779945
-14.1475,0.6948303536779945
-14.147,0.6948303536779945
-14.1465,0.6948303536779945
-14.146,0.6681419627562185
-14.1455,0.678346347520427
-14.145,0.6932604483296548
-14.1445,0.7026798804196934
-14.144,0.7128842651839018
-14.1435,0.7113143598355621
-14.143,0.6964002590263343
-14.1425,0.6940454010038246
-14.142,0.6956153063521644
-14.1415,0.6948303536779945
-14.141,0.6956153063521644
-14.1405,0.6956153063521644
-14.14,0.6956153063521644
-14.1395,0.6948303536779945
-14.139,0.6956153063521644
-14.1385,0.6948303536779945
-14.138,0.6956153063521644
-14.1375,0.6948303536779945
-14.137,0.6964002590263343
-14.1365,0.6979701643746741
-14.136,0.691690542981315
-14.1355,0.6830560635654463
-14.135,0.6752065368237475
-14.1345,0.6689269154303884
-14.134,0.6555827199695005
-14.1335,0.6791313001945969
-14.133,0.6948303536779945
-14.1325,0.6956153063521644
-14.132,0.6956153063521644
-14.1315,0.6948303536779945
-14.131,0.6956153063521644
-14.1305,0.6956153063521644
-14.13,0.6948303536779945
-14.1295,0.678346347520427
-14.129,0.6712817734528981
-14.1285,0.6901206376329753
-14.128,0.6995400697230139
-14.1275,0.7097444544872223
-14.127,0.7160240758805814
-14.1265,0.6964002590263343
-14.126,0.6956153063521644
-14.1255,0.6956153063521644
-14.125,0.6956153063521644
-14.1245,0.6940454010038246
-14.124,0.6956153063521644
-14.1235,0.6956153063521644
-14.123,0.6956153063521644
-14.1225,0.6956153063521644
-14.122,0.6948303536779945
-14.1215,0.6956153063521644
-14.121,0.6956153063521644
-14.1205,0.6956153063521644
-14.12,0.698755117048844
-14.1195,0.6940454010038246
-14.119,0.6869808269362957
-14.1185,0.678346347520427
-14.118,0.672066726127068
-14.1175,0.6595074833403498
-14.117,0.6618623413628595
-14.1165,0.6956153063521644
-14.116,0.6948303536779945
-14.1155,0.6956153063521644
-14.115,0.6956153063521644
-14.1145,0.6964002590263343
-14.114,0.6956153063521644
-14.1135,0.6956153063521644
-14.113,0.6909055903071452
-14.1125,0.6657871047337089
-14.112,0.6838410162396162
-14.1115,0.6971852117005042
-14.111,0.7066046437905428
-14.1105,0.7160240758805814
-14.11,0.7042497857680331
-14.1095,0.6964002590263343
-14.109,0.6956153063521644
-14.1085,0.6956153063521644
-14.108,0.6956153063521644
-14.1075,0.6948303536779945
-14.107,0.6964002590263343
-14.1065,0.6956153063521644
-14.106,0.6956153063521644
-14.1055,0.6964002590263343
-14.105,0.6948303536779945
-14.1045,0.6956153063521644
-14.104,0.6956153063521644
-14.1035,0.6979701643746741
-14.103,0.6964002590263343
-14.1025,0.6893356849588054
-14.102,0.6799162528687668
-14.1015,0.6744215841495776
-14.101,0.6657871047337089
-14.1005,0.6508730039244811
-14.1,0.6940454010038246
-14.0995,0.6956153063521644
-14.099,0.6956153063521644
-14.0985,0.6956153063521644
-14.098,0.6956153063521644
-14.0975,0.6964002590263343
-14.097,0.6948303536779945
-14.0965,0.6956153063521644
-14.096,0.6689269154303884
-14.0955,0.678346347520427
-14.095,0.6948303536779945
-14.0945,0.7034648330938632
-14.094,0.7128842651839018
-14.0935,0.712099312509732
-14.093,0.6956153063521644
-14.0925,0.6948303536779945
-14.092,0.6956153063521644
-14.0915,0.6956153063521644
-14.091,0.6956153063521644
-14.0905,0.6948303536779945
-14.09,0.6956153063521644
-14.0895,0.6948303536779945
-14.089,0.6948303536779945
-14.0885,0.6956153063521644
-14.088,0.6948303536779945
-14.0875,0.6948303536779945
-14.087,0.6964002590263343
-14.0865,0.698755117048844
-14.086,0.691690542981315
-14.0855,0.6838410162396162
-14.085,0.6752065368237475
-14.0845,0.6697118681045583
-14.084,0.6555827199695005
-14.0835,0.6791313001945969
-14.083,0.6956153063521644
-14.0825,0.6956153063521644
-14.082,0.6948303536779945
-14.0815,0.6956153063521644
-14.081,0.6964002590263343
-14.0805,0.6956153063521644
-14.08,0.6956153063521644
-14.0795,0.678346347520427
-14.079,0.6728516788012379
-14.0785,0.6893356849588054
-14.078,0.7011099750713536
-14.0775,0.7097444544872223
-14.077,0.718378933903091
-14.0765,0.6964002590263343
-14.076,0.6964002590263343
-14.0755,0.6948303536779945
-14.075,0.6964002590263343
-14.0745,0.6956153063521644
-14.074,0.6956153063521644
-14.0735,0.6956153063521644
-14.073,0.6964002590263343
-14.0725,0.6956153063521644
-14.072,0.6964002590263343
-14.0715,0.6956153063521644
-14.071,0.6956153063521644
-14.0705,0.6956153063521644
-14.07,0.6995400697230139
-14.0695,0.6932604483296548
-14.069,0.6861958742621258
-14.0685,0.6775613948462571
-14.068,0.6712817734528981
-14.0675,0.6602924360145197
-14.067,0.6634322467111993
-14.0665,0.6956153063521644
-14.066,0.6956153063521644
-14.0655,0.6964002590263343
-14.065,0.6948303536779945
-14.0645,0.6956153063521644
-14.064,0.6956153063521644
-14.0635,0.6964002590263343
-14.063,0.6901206376329753
-14.0625,0.6665720574078787
-14.062,0.6846259689137861
-14.0615,0.6979701643746741
-14.061,0.7066046437905428
-14.0605,0.7152391232064115
-14.06,0.7034648330938632
-14.0595,0.6956153063521644
-14.059,0.6956153063521644
-14.0585,0.6964002590263343
-14.058,0.6956153063521644
-14.0575,0.6956153063521644
-14.057,0.6948303536779945
-14.0565,0.6956153063521644
-14.056,0.6964002590263343
-14.0555,0.6948303536779945
-14.055,0.6956153063521644
-14.0545,0.6948303536779945
-14.054,0.6956153063521644
-14.0535,0.698755117048844
-14.053,0.6956153063521644
-14.0525,0.6885507322846355
-14.052,0.6799162528687668
-14.0515,0.6728516788012379
-14.051,0.6642171993853692
-14.0505,0.6500880512503112
-14.05,0.6956153063521644
-14.0495,0.6956153063521644
-14.049,0.6964002590263343
-14.0485,0.6948303536779945
-14.048,0.6956153063521644
-14.0475,0.6964002590263343
-14.047,0.6956153063521644
-14.0465,0.6948303536779945
-14.046,0.6689269154303884
-14.0455,0.678346347520427
-14.045,0.6924754956554849
-14.0445,0.7034648330938632
-14.044,0.712099312509732
-14.0435,0.7113143598355621
-14.043,0.6956153063521644
-14.0425,0.6964002590263343
-14.042,0.6956153063521644
-14.0415,0.6964002590263343
-14.041,0.6964002590263343
-14.0405,0.6964002590263343
-14.04,0.6964002590263343
-14.0395,0.6948303536779945
-14.039,0.6956153063521644
-14.0385,0.6964002590263343
-14.038,0.6956153063521644
-14.0375,0.6956153063521644
-14.037,0.6971852117005042
-14.0365,0.6979701643746741
-14.036,0.6909055903071452
-14.0355,0.6822711108912765
-14.035,0.6752065368237475
-14.0345,0.6681419627562185
-14.034,0.6540128146211607
-14.0335,0.6799162528687668
-14.033,0.6948303536779945
-14.0325,0.6956153063521644
-14.032,0.6964002590263343
-14.0315,0.6956153063521644
-14.031,0.6956153063521644
-14.0305,0.6956153063521644
-14.03,0.6956153063521644
-14.0295,0.678346347520427
-14.029,0.6712817734528981
-14.0285,0.6893356849588054
-14.028,0.7003250223971837
-14.0275,0.7081745491388826
-14.027,0.7168090285547513
-14.0265,0.6956153063521644
-14.026,0.6956153063521644
-14.0255,0.6964002590263343
-14.025,0.6956153063521644
-14.0245,0.6956153063521644
-14.024,0.6956153063521644
-14.0235,0.6964002590263343
-14.023,0.6956153063521644
-14.0225,0.6964002590263343
-14.022,0.6964002590263343
-14.0215,0.6964002590263343
-14.021,0.6956153063521644
-14.0205,0.6964002590263343
-14.02,0.6979701643746741
-14.0195,0.6940454010038246
-14.019,0.6861958742621258
-14.0185,0.6775613948462571
-14.018,0.672066726127068
-14.0175,0.6595074833403498
-14.017,0.6642171993853692
-14.0165,0.6956153063521644
-14.016,0.6964002590263343
-14.0155,0.6956153063521644
-14.015,0.6964002590263343
-14.0145,0.6956153063521644
-14.014,0.6971852117005042
-14.0135,0.6956153063521644
-14.013,0.6901206376329753
-14.0125,0.6665720574078787
-14.012,0.6830560635654463
-14.0115,0.6971852117005042
-14.011,0.7058196911163729
-14.0105,0.7152391232064115
-14.01,0.705034738442203
-14.0095,0.6964002590263343
-14.009,0.6956153063521644
-14.0085,0.6971852117005042
-14.008,0.6964002590263343
-14.0075,0.6964002590263343
-14.007,0.6956153063521644
-14.0065,0.6956153063521644
-14.006,0.6964002590263343
-14.0055,0.6956153063521644
-14.005,0.6956153063521644
-14.0045,0.6956153063521644
-14.004,0.6964002590263343
-14.0035,0.698755117048844
-14.003,0.6964002590263343
-14.0025,0.6885507322846355
-14.002,0.6807012055429367
-14.0015,0.6736366314754078
-14.001,0.6650021520595391
-14.0005,0.6500880512503112
-14,0.6956153063521644
-13.9995,0.6956153063521644
-13.999,0.6964002590263343
-13.9985,0.6956153063521644
-13.998,0.6956153063521644
-13.9975,0.6971852117005042
-13.997,0.6964002590263343
-13.9965,0.6964002590263343
-13.996,0.6673570100820486
-13.9955,0.678346347520427
-13.995,0.6940454010038246
-13.9945,0.7026798804196934
-13.994,0.7128842651839018
-13.9935,0.7113143598355621
-13.993,0.6956153063521644
-13.9925,0.6956153063521644
-13.992,0.6956153063521644
-13.9915,0.6964002590263343
-13.991,0.6964002590263343
-13.9905,0.6948303536779945
-13.99,0.6964002590263343
-13.9895,0.6956153063521644
-13.989,0.6956153063521644
-13.9885,0.6956153063521644
-13.988,0.6956153063521644
-13.9875,0.6956153063521644
-13.987,0.6964002590263343
-13.9865,0.6979701643746741
-13.986,0.6909055903071452
-13.9855,0.6830560635654463
-13.985,0.6752065368237475
-13.9845,0.6681419627562185
-13.984,0.6555827199695005
-13.9835,0.6799162528687668
-13.983,0.6964002590263343
-13.9825,0.6956153063521644
-13.982,0.6964002590263343
-13.9815,0.6956153063521644
-13.981,0.6964002590263343
-13.9805,0.6956153063521644
-13.98,0.6956153063521644
-13.9795,0.678346347520427
-13.979,0.6712817734528981
-13.9785,0.6901206376329753
-13.978,0.7003250223971837
-13.9775,0.7105294071613922
-13.977,0.718378933903091
-13.9765,0.6964002590263343
-13.976,0.6956153063521644
-13.9755,0.6964002590263343
-13.975,0.6964002590263343
-13.9745,0.6964002590263343
-13.974,0.6956153063521644
-13.9735,0.6964002590263343
-13.973,0.6956153063521644
-13.9725,0.6964002590263343
-13.972,0.6964002590263343
-13.9715,0.6964002590263343
-13.971,0.6956153063521644
-13.9705,0.6956153063521644
-13.97,0.698755117048844
-13.9695,0.6940454010038246
-13.969,0.6861958742621258
-13.9685,0.678346347520427
-13.968,0.672066726127068
-13.9675,0.6595074833403498
-13.967,0.6642171993853692
-13.9665,0.6971852117005042
-13.966,0.6964002590263343
-13.9655,0.6956153063521644
-13.965,0.6964002590263343
-13.9645,0.6964002590263343
-13.964,0.6956153063521644
-13.9635,0.6964002590263343
-13.963,0.6901206376329753
-13.9625,0.6657871047337089
-13.962,0.6846259689137861
-13.9615,0.6971852117005042
-13.961,0.7066046437905428
-13.9605,0.7160240758805814
-13.96,0.705034738442203
-13.9595,0.6956153063521644
-13.959,0.6964002590263343
-13.9585,0.6964002590263343
-13.958,0.6956153063521644
-13.9575,0.6964002590263343
-13.957,0.6964002590263343
-13.9565,0.6964002590263343
-13.956,0.6956153063521644
-13.9555,0.6956153063521644
-13.955,0.6964002590263343
-13.9545,0.6964002590263343
-13.954,0.6956153063521644
-13.9535,0.698755117048844
-13.953,0.6956153063521644
-13.9525,0.6877657796104656
-13.952,0.6799162528687668
-13.9515,0.6728516788012379
-13.951,0.6642171993853692
-13.9505,0.6493030985761413
-13.95,0.6964002590263343
-13.9495,0.6964002590263343
-13.949,0.6964002590263343
-13.9485,0.6956153063521644
-13.948,0.6956153063521644
-13.9475,0.6964002590263343
-13.947,0.6956153063521644
-13.9465,0.6964002590263343
-13.946,0.6673570100820486
-13.9455,0.6767764421720872
-13.945,0.6940454010038246
-13.9445,0.7026798804196934
-13.944,0.7113143598355621
-13.9435,0.7113143598355621
-13.943,0.6948303536779945
-13.9425,0.6964002590263343
-13.942,0.6956153063521644
-13.9415,0.6964002590263343
-13.941,0.6964002590263343
-13.9405,0.6948303536779945
-13.94,0.6964002590263343
-13.9395,0.6956153063521644
-13.939,0.6956153063521644
-13.9385,0.6956153063521644
-13.938,0.6956153063521644
-13.9375,0.6956153063521644
-13.937,0.6964002590263343
-13.9365,0.6971852117005042
-13.936,0.6909055903071452
-13.9355,0.6838410162396162
-13.935,0.6759914894979173
-13.9345,0.6681419627562185
-13.934,0.6540128146211607
-13.9335,0.6799162528687668
-13.933,0.6964002590263343
-13.9325,0.6964002590263343
-13.932,0.6956153063521644
-13.9315,0.6964002590263343
-13.931,0.6971852117005042
-13.9305,0.6956153063521644
-13.93,0.6964002590263343
-13.9295,0.6767764421720872
-13.929,0.6728516788012379
-13.9285,0.6885507322846355
-13.928,0.7003250223971837
-13.9275,0.7105294071613922
-13.927,0.718378933903091
-13.9265,0.6964002590263343
-13.926,0.6956153063521644
-13.9255,0.6971852117005042
-13.925,0.6956153063521644
-13.9245,0.6964002590263343
-13.924,0.6964002590263343
-13.9235,0.6956153063521644
-13.923,0.6964002590263343
-13.9225,0.6964002590263343
-13.922,0.6964002590263343
-13.9215,0.6964002590263343
-13.921,0.6956153063521644
-13.9205,0.6956153063521644
-13.92,0.6995400697230139
-13.9195,0.6948303536779945
-13.919,0.6869808269362957
-13.9185,0.678346347520427
-13.918,0.672066726127068
-13.9175,0.6602924360145197
-13.917,0.6657871047337089
-13.9165,0.6964002590263343
-13.916,0.6956153063521644
-13.9155,0.6964002590263343
-13.915,0.6964002590263343
-13.9145,0.6956153063521644
-13.914,0.6964002590263343
-13.9135,0.6956153063521644
-13.913,0.6893356849588054
-13.9125,0.6673570100820486
-13.912,0.6854109215879559
-13.9115,0.698755117048844
-13.911,0.7081745491388826
-13.9105,0.718378933903091
-13.91,0.7034648330938632
-13.9095,0.6971852117005042
-13.909,0.6964002590263343
-13.9085,0.6971852117005042
-13.908,0.6964002590263343
-13.9075,0.6964002590263343
-13.907,0.6964002590263343
-13.9065,0.6956153063521644
-13.906,0.6964002590263343
-13.9055,0.6956153063521644
-13.905,0.6956153063521644
-13.9045,0.6964002590263343
-13.904,0.6956153063521644
-13.9035,0.7011099750713536
-13.903,0.6964002590263343
-13.9025,0.6909055903071452
-13.902,0.6822711108912765
-13.9015,0.6759914894979173
-13.901,0.6657871047337089
-13.9005,0.6524429092728209
-13.9,0.6964002590263343
-13.8995,0.6964002590263343
-13.899,0.6956153063521644
-13.8985,0.6964002590263343
-13.898,0.6964002590263343
-13.8975,0.6956153063521644
-13.897,0.6956153063521644
-13.8965,0.6956153063521644
-13.896,0.6681419627562185
-13.8955,0.6814861582171066
-13.895,0.6948303536779945
-13.8945,0.705034738442203
-13.894,0.7136692178580717
-13.8935,0.7113143598355621
-13.893,0.6956153063521644
-13.8925,0.6956153063521644
-13.892,0.6964002590263343
-13.8915,0.6956153063521644
-13.891,0.6964002590263343
-13.8905,0.6964002590263343
-13.89,0.6956153063521644
-13.8895,0.6964002590263343
-13.889,0.6956153063521644
-13.8885,0.6956153063521644
-13.888,0.6964002590263343
-13.8875,0.6956153063521644
-13.887,0.6971852117005042
-13.8865,0.698755117048844
-13.886,0.691690542981315
-13.8855,0.6838410162396162
-13.885,0.6759914894979173
-13.8845,0.6697118681045583
-13.884,0.6547977672953306
-13.8835,0.6799162528687668
-13.883,0.6956153063521644
-13.8825,0.6964002590263343
-13.882,0.6956153063521644
-13.8815,0.6964002590263343
-13.881,0.6956153063521644
-13.8805,0.6956153063521644
-13.88,0.6964002590263343
-13.8795,0.6752065368237475
-13.879,0.6736366314754078
-13.8785,0.6885507322846355
-13.878,0.7003250223971837
-13.8775,0.7105294071613922
-13.877,0.7168090285547513
-13.8765,0.6956153063521644
-13.876,0.6956153063521644
-13.8755,0.6964002590263343
-13.875,0.6948303536779945
-13.8745,0.6964002590263343
-13.874,0.6956153063521644
-13.8735,0.6964002590263343
-13.873,0.6964002590263343
-13.8725,0.6948303536779945
-13.872,0.6964002590263343
-13.8715,0.6956153063521644
-13.871,0.6956153063521644
-13.8705,0.6964002590263343
-13.87,0.6979701643746741
-13.8695,0.6924754956554849
-13.869,0.6846259689137861
-13.8685,0.6767764421720872
-13.868,0.6704968207787282
-13.8675,0.6587225306661799
-13.867,0.6650021520595391
-13.8665,0.6964002590263343
-13.866,0.6964002590263343
-13.8655,0.6948303536779945
-13.865,0.6964002590263343
-13.8645,0.6948303536779945
-13.864,0.6956153063521644
-13.8635,0.6956153063521644
-13.863,0.6893356849588054
-13.8625,0.6673570100820486
-13.862,0.6838410162396162
-13.8615,0.6979701643746741
-13.861,0.7073895964647127
-13.8605,0.7144541705322416
-13.86,0.7026798804196934
-13.8595,0.6964002590263343
-13.859,0.6964002590263343
-13.8585,0.6956153063521644
-13.858,0.6964002590263343
-13.8575,0.6971852117005042
-13.857,0.6956153063521644
-13.8565,0.6964002590263343
-13.856,0.6956153063521644
-13.8555,0.6956153063521644
-13.855,0.6956153063521644
-13.8545,0.6964002590263343
-13.854,0.6956153063521644
-13.8535,0.698755117048844
-13.853,0.6948303536779945
-13.8525,0.6893356849588054
-13.852,0.6799162528687668
-13.8515,0.6728516788012379
-13.851,0.6634322467111993
-13.8505,0.6500880512503112
-13.85,0.6964002590263343
-13.8495,0.6964002590263343
-13.849,0.6964002590263343
-13.8485,0.6956153063521644
-13.848,0.6956153063521644
-13.8475,0.6964002590263343
-13.847,0.6956153063521644
-13.8465,0.6964002590263343
-13.846,0.6665720574078787
-13.8455,0.678346347520427
-13.845,0.6932604483296548
-13.8445,0.7034648330938632
-13.844,0.712099312509732
-13.8435,0.7105294071613922
-13.843,0.6971852117005042
-13.8425,0.6971852117005042
-13.842,0.6956153063521644
-13.8415,0.6956153063521644
-13.841,0.6971852117005042
-13.8405,0.6964002590263343
-13.84,0.6964002590263343
-13.8395,0.6956153063521644
-13.839,0.6964002590263343
-13.8385,0.6956153063521644
-13.838,0.6956153063521644
-13.8375,0.6956153063521644
-13.837,0.6971852117005042
-13.8365,0.6964002590263343
-13.836,0.6909055903071452
-13.8355,0.6822711108912765
-13.835,0.6744215841495776
-13.8345,0.6665720574078787
-13.834,0.6540128146211607
-13.8335,0.6799162528687668
-13.833,0.6964002590263343
-13.8325,0.6964002590263343
-13.832,0.6964002590263343
-13.8315,0.6956153063521644
-13.831,0.6956153063521644
-13.8305,0.6956153063521644
-13.83,0.6964002590263343
-13.8295,0.6767764421720872
-13.829,0.6712817734528981
-13.8285,0.6901206376329753
-13.828,0.7003250223971837
-13.8275,0.7089595018130525
-13.827,0.7175939812289212
-13.8265,0.6956153063521644
-13.826,0.6971852117005042
-13.8255,0.6956153063521644
-13.825,0.6964002590263343
-13.8245,0.6964002590263343
-13.824,0.6964002590263343
-13.8235,0.6971852117005042
-13.823,0.6964002590263343
-13.8225,0.6964002590263343
-13.822,0.6964002590263343
-13.8215,0.6956153063521644
-13.821,0.6956153063521644
-13.8205,0.6956153063521644
-13.82,0.698755117048844
-13.8195,0.6932604483296548
-13.819,0.6838410162396162
-13.8185,0.6767764421720872
-13.818,0.6704968207787282
-13.8175,0.65793757799201
-13.817,0.6657871047337089
-13.8165,0.6964002590263343
-13.816,0.6971852117005042
-13.8155,0.6964002590263343
-13.815,0.6964002590263343
-13.8145,0.6956153063521644
-13.814,0.6964002590263343
-13.8135,0.6964002590263343
-13.813,0.6885507322846355
-13.8125,0.6665720574078787
-13.812,0.6854109215879559
-13.8115,0.6971852117005042
-13.811,0.7073895964647127
-13.8105,0.7152391232064115
-13.81,0.7026798804196934
-13.8095,0.6964002590263343
-13.809,0.6964002590263343
-13.8085,0.6964002590263343
-13.808,0.6956153063521644
-13.8075,0.6964002590263343
-13.807,0.6956153063521644
-13.8065,0.6956153063521644
-13.806,0.6956153063521644
-13.8055,0.6964002590263343
-13.805,0.6956153063521644
-13.8045,0.6956153063521644
-13.804,0.6956153063521644
-13.8035,0.7011099750713536
-13.803,0.6979701643746741
-13.8025,0.6924754956554849
-13.802,0.6838410162396162
-13.8015,0.678346347520427
-13.801,0.6689269154303884
-13.8005,0.6571526253178401
-13.8,0.6979701643746741
-13.7995,0.6964002590263343
-13.799,0.6964002590263343
-13.7985,0.6964002590263343
-13.798,0.6964002590263343
-13.7975,0.6964002590263343
-13.797,0.6956153063521644
-13.7965,0.6964002590263343
-13.796,0.6752065368237475
-13.7955,0.6885507322846355
-13.795,0.7058196911163729
-13.7945,0.7160240758805814
-13.794,0.7246585552964501
-13.7935,0.7191638865772609
-13.793,0.6956153063521644
-13.7925,0.6964002590263343
-13.792,0.6964002590263343
-13.7915,0.6964002590263343
-13.791,0.6956153063521644
-13.7905,0.6956153063521644
-13.79,0.6956153063521644
-13.7895,0.6956153063521644
-13.789,0.6956153063521644
-13.7885,0.6956153063521644
-13.788,0.6956153063521644
-13.7875,0.6956153063521644
-13.787,0.7042497857680331
-13.7865,0.7191638865772609
-13.786,0.712099312509732
-13.7855,0.705034738442203
-13.785,0.698755117048844
-13.7845,0.691690542981315
-13.784,0.6775613948462571
-13.7835,0.6869808269362957
-13.783,0.6948303536779945
-13.7825,0.6948303536779945
-13.782,0.6948303536779945
-13.7815,0.6956153063521644
-13.781,0.6940454010038246
-13.7805,0.6956153063521644
-13.78,0.6940454010038246
-13.7795,0.6877657796104656
-13.779,0.6948303536779945
-13.7785,0.7113143598355621
-13.778,0.7215187445997706
-13.7775,0.7301532240156393
-13.777,0.7356478927348284
-13.7765,0.6932604483296548
-13.776,0.6940454010038246
-13.7755,0.6932604483296548
-13.775,0.6948303536779945
-13.7745,0.6932604483296548
-13.774,0.6948303536779945
-13.7735,0.6940454010038246
-13.773,0.6940454010038246
-13.7725,0.6948303536779945
-13.772,0.6940454010038246
-13.7715,0.6948303536779945
-13.771,0.6948303536779945
-13.7705,0.6940454010038246
-13.77,0.705034738442203
-13.7695,0.698755117048844
-13.769,0.6877657796104656
-13.7685,0.6799162528687668
-13.768,0.6728516788012379
-13.7675,0.6587225306661799
-13.767,0.6650021520595391
-13.7665,0.6940454010038246
-13.766,0.6948303536779945
-13.7655,0.6940454010038246
-13.765,0.6940454010038246
-13.7645,0.6940454010038246
-13.764,0.6948303536779945
-13.7635,0.6948303536779945
-13.763,0.6861958742621258
-13.7625,0.6500880512503112
-13.762,0.6704968207787282
-13.7615,0.6830560635654463
-13.761,0.6932604483296548
-13.7605,0.7026798804196934
-13.76,0.6979701643746741
-13.7595,0.6964002590263343
-13.759,0.6948303536779945
-13.7585,0.6956153063521644
-13.758,0.6956153063521644
-13.7575,0.6948303536779945
-13.757,0.6948303536779945
-13.7565,0.6948303536779945
-13.756,0.6956153063521644
-13.7555,0.6956153063521644
-13.755,0.6956153063521644
-13.7545,0.6948303536779945
-13.754,0.6948303536779945
-13.7535,0.6924754956554849
-13.753,0.6877657796104656
-13.7525,0.6807012055429367
-13.752,0.6728516788012379
-13.7515,0.6657871047337089
-13.751,0.6571526253178401
-13.7505,0.6469482405536318
-13.75,0.6948303536779945
-13.7495,0.6948303536779945
-13.749,0.6948303536779945
-13.7485,0.6948303536779945
-13.748,0.6940454010038246
-13.7475,0.6956153063521644
-13.747,0.6956153063521644
-13.7465,0.6956153063521644
-13.746,0.6642171993853692
-13.7455,0.6767764421720872
-13.745,0.691690542981315
-13.7445,0.7018949277455235
-13.744,0.7113143598355621
-13.7435,0.7073895964647127
-13.743,0.6948303536779945
-13.7425,0.6964002590263343
-13.742,0.6948303536779945
-13.7415,0.6956153063521644
-13.741,0.6956153063521644
-13.7405,0.6948303536779945
-13.74,0.6956153063521644
-13.7395,0.6956153063521644
-13.739,0.6956153063521644
-13.7385,0.6956153063521644
-13.738,0.6948303536779945
-13.7375,0.6956153063521644
-13.737,0.6956153063521644
-13.7365,0.6956153063521644
-13.736,0.6901206376329753
-13.7355,0.6807012055429367
-13.735,0.6736366314754078
-13.7345,0.6665720574078787
-13.734,0.6524429092728209
-13.7335,0.6814861582171066
-13.733,0.6956153063521644
-13.7325,0.6956153063521644
-13.732,0.6956153063521644
-13.7315,0.6956153063521644
-13.731,0.6956153063521644
-13.7305,0.6956153063521644
-13.73,0.6948303536779945
-13.7295,0.6744215841495776
-13.729,0.672066726127068
-13.7285,0.6885507322846355
-13.728,0.7003250223971837
-13.7275,0.7097444544872223
-13.727,0.7160240758805814
-13.7265,0.6956153063521644
-13.726,0.6956153063521644
-13.7255,0.6956153063521644
-13.725,0.6948303536779945
-13.7245,0.6964002590263343
-13.724,0.6956153063521644
-13.7235,0.6948303536779945
-13.723,0.6956153063521644
-13.7225,0.6948303536779945
-13.722,0.6948303536779945
-13.7215,0.6948303536779945
-13.721,0.6948303536779945
-13.7205,0.6956153063521644
-13.72,0.6979701643746741
-13.7195,0.691690542981315
-13.719,0.6830560635654463
-13.7185,0.6759914894979173
-13.718,0.6704968207787282
-13.7175,0.6571526253178401
-13.717,0.6665720574078787
-13.7165,0.6956153063521644
-13.716,0.6948303536779945
-13.7155,0.6956153063521644
-13.715,0.6956153063521644
-13.7145,0.6956153063521644
-13.714,0.6956153063521644
-13.7135,0.6964002590263343
-13.713,0.6885507322846355
-13.7125,0.6657871047337089
-13.712,0.6838410162396162
-13.7115,0.6971852117005042
-13.711,0.7073895964647127
-13.7105,0.7144541705322416
-13.71,0.7034648330938632
-13.7095,0.6956153063521644
-13.709,0.6948303536779945
-13.7085,0.6964002590263343
-13.708,0.6956153063521644
-13.7075,0.6964002590263343
-13.707,0.6956153063521644
-13.7065,0.6956153063521644
-13.706,0.6956153063521644
-13.7055,0.6956153063521644
-13.705,0.6956153063521644
-13.7045,0.6964002590263343
-13.704,0.6956153063521644
-13.7035,0.698755117048844
-13.703,0.6948303536779945
-13.7025,0.6877657796104656
-13.702,0.678346347520427
-13.7015,0.672066726127068
-13.701,0.6626472940370294
-13.7005,0.6524429092728209
-13.7,0.6956153063521644
-13.6995,0.6956153063521644
-13.699,0.6956153063521644
-13.6985,0.6956153063521644
-13.698,0.6956153063521644
-13.6975,0.6964002590263343
-13.697,0.6948303536779945
-13.6965,0.6956153063521644
-13.696,0.6665720574078787
-13.6955,0.6807012055429367
-13.695,0.6940454010038246
-13.6945,0.7026798804196934
-13.694,0.7128842651839018
-13.6935,0.7097444544872223
-13.693,0.6964002590263343
-13.6925,0.6964002590263343
-13.692,0.6956153063521644
-13.6915,0.6956153063521644
-13.691,0.6964002590263343
-13.6905,0.6956153063521644
-13.69,0.6964002590263343
-13.6895,0.6964002590263343
-13.689,0.6956153063521644
-13.6885,0.6964002590263343
-13.688,0.6956153063521644
-13.6875,0.6956153063521644
-13.687,0.6979701643746741
-13.6865,0.6964002590263343
-13.686,0.6909055903071452
-13.6855,0.6822711108912765
-13.685,0.6752065368237475
-13.6845,0.6681419627562185
-13.684,0.6540128146211607
-13.6835,0.6822711108912765
-13.683,0.6964002590263343
-13.6825,0.6964002590263343
-13.682,0.6956153063521644
-13.6815,0.6971852117005042
-13.681,0.6956153063521644
-13.6805,0.6964002590263343
-13.68,0.6948303536779945
-13.6795,0.6759914894979173
-13.679,0.6736366314754078
-13.6785,0.6909055903071452
-13.678,0.7018949277455235
-13.6775,0.7105294071613922
-13.677,0.7175939812289212
-13.6765,0.6956153063521644
-13.676,0.6964002590263343
-13.6755,0.6956153063521644
-13.675,0.6964002590263343
-13.6745,0.6956153063521644
-13.674,0.6964002590263343
-13.6735,0.6964002590263343
-13.673,0.6964002590263343
-13.6725,0.6964002590263343
-13.672,0.6956153063521644
-13.6715,0.6956153063521644
-13.671,0.6964002590263343
-13.6705,0.6956153063521644
-13.67,0.7011099750713536
-13.6695,0.6932604483296548
-13.669,0.6861958742621258
-13.6685,0.678346347520427
-13.668,0.672066726127068
-13.6675,0.6595074833403498
-13.667,0.6697118681045583
-13.6665,0.6964002590263343
-13.666,0.6956153063521644
-13.6655,0.6971852117005042
-13.665,0.6956153063521644
-13.6645,0.6956153063521644
-13.664,0.6964002590263343
-13.6635,0.6948303536779945
-13.663,0.6893356849588054
-13.6625,0.6673570100820486
-13.662,0.6854109215879559
-13.6615,0.698755117048844
-13.661,0.7081745491388826
-13.6605,0.7168090285547513
-13.66,0.7018949277455235
-13.6595,0.6964002590263343
-13.659,0.6956153063521644
-13.6585,0.6964002590263343
-13.658,0.6964002590263343
-13.6575,0.6956153063521644
-13.657,0.6964002590263343
-13.6565,0.6964002590263343
-13.656,0.6956153063521644
-13.6555,0.6964002590263343
-13.655,0.6956153063521644
-13.6545,0.6956153063521644
-13.654,0.6956153063521644
-13.6535,0.7003250223971837
-13.653,0.6956153063521644
-13.6525,0.6901206376329753
-13.652,0.6807012055429367
-13.6515,0.6752065368237475
-13.651,0.6650021520595391
-13.6505,0.6547977672953306
-13.65,0.6956153063521644
-13.6495,0.6956153063521644
-13.649,0.6956153063521644
-13.6485,0.6948303536779945
-13.648,0.6956153063521644
-13.6475,0.6956153063521644
-13.647,0.6948303536779945
-13.6465,0.6956153063521644
-13.646,0.6681419627562185
-13.6455,0.6814861582171066
-13.645,0.6956153063521644
-13.6445,0.7066046437905428
-13.644,0.7152391232064115
-13.6435,0.7097444544872223
-13.643,0.6971852117005042
-13.6425,0.6956153063521644
-13.642,0.6956153063521644
-13.6415,0.6964002590263343
-13.641,0.6956153063521644
-13.6405,0.6956153063521644
-13.64,0.6956153063521644
-13.6395,0.6948303536779945
-13.639,0.6964002590263343
-13.6385,0.6956153063521644
-13.638,0.6956153063521644
-13.6375,0.6964002590263343
-13.637,0.698755117048844
-13.6365,0.6995400697230139
-13.636,0.6924754956554849
-13.6355,0.6846259689137861
-13.635,0.6775613948462571
-13.6345,0.6697118681045583
-13.634,0.6555827199695005
-13.6335,0.6838410162396162
-13.633,0.6964002590263343
-13.6325,0.6956153063521644
-13.632,0.6964002590263343
-13.6315,0.6964002590263343
-13.631,0.6948303536779945
-13.6305,0.6964002590263343
-13.63,0.6956153063521644
-13.6295,0.6767764421720872
-13.629,0.6759914894979173
-13.6285,0.6940454010038246
-13.628,0.705034738442203
-13.6275,0.7136692178580717
-13.627,0.7191638865772609
-13.6265,0.6956153063521644
-13.626,0.6948303536779945
-13.6255,0.6964002590263343
-13.625,0.6956153063521644
-13.6245,0.6956153063521644
-13.624,0.6964002590263343
-13.6235,0.6948303536779945
-13.623,0.6956153063521644
-13.6225,0.6956153063521644
-13.622,0.6948303536779945
-13.6215,0.6948303536779945
-13.621,0.6948303536779945
-13.6205,0.6948303536779945
-13.62,0.7034648330938632
-13.6195,0.6964002590263343
-13.619,0.6885507322846355
-13.6185,0.6814861582171066
-13.618,0.6752065368237475
-13.6175,0.6618623413628595
-13.617,0.6704968207787282
-13.6165,0.6971852117005042
-13.616,0.6940454010038246
-13.6155,0.6956153063521644
-13.615,0.6956153063521644
-13.6145,0.6956153063521644
-13.614,0.6948303536779945
-13.6135,0.6948303536779945
-13.613,0.6885507322846355
-13.6125,0.6704968207787282
-13.612,0.6901206376329753
-13.6115,0.7026798804196934
-13.611,0.7128842651839018
-13.6105,0.7199488392514308
-13.61,0.7026798804196934
-13.6095,0.6964002590263343
-13.609,0.6948303536779945
-13.6085,0.6956153063521644
-13.608,0.6948303536779945
-13.6075,0.6956153063521644
-13.607,0.6956153063521644
-13.6065,0.6948303536779945
-13.606,0.6964002590263343
-13.6055,0.6956153063521644
-13.605,0.6956153063521644
-13.6045,0.6956153063521644
-13.604,0.6956153063521644
-13.6035,0.7018949277455235
-13.603,0.7003250223971837
-13.6025,0.6940454010038246
-13.602,0.6846259689137861
-13.6015,0.678346347520427
-13.601,0.6689269154303884
-13.6005,0.6587225306661799
-13.6,0.6948303536779945
-13.5995,0.6956153063521644
-13.599,0.6948303536779945
-13.5985,0.6956153063521644
-13.598,0.6956153063521644
-13.5975,0.6956153063521644
-13.597,0.6948303536779945
-13.5965,0.6956153063521644
-13.596,0.6704968207787282
-13.5955,0.6861958742621258
-13.595,0.7003250223971837
-13.5945,0.7105294071613922
-13.594,0.7191638865772609
-13.5935,0.7128842651839018
-13.593,0.6956153063521644
-13.5925,0.6956153063521644
-13.592,0.6948303536779945
-13.5915,0.6956153063521644
-13.591,0.6956153063521644
-13.5905,0.6948303536779945
-13.59,0.6956153063521644
-13.5895,0.6956153063521644
-13.589,0.6948303536779945
-13.5885,0.6948303536779945
-13.588,0.6948303536779945
-13.5875,0.6956153063521644
-13.587,0.698755117048844
-13.5865,0.7042497857680331
-13.586,0.6971852117005042
-13.5855,0.6885507322846355
-13.585,0.6814861582171066
-13.5845,0.6744215841495776
-13.584,0.6595074833403498
-13.5835,0.6846259689137861
-13.583,0.6956153063521644
-13.5825,0.6948303536779945
-13.582,0.6956153063521644
-13.5815,0.6956153063521644
-13.581,0.6940454010038246
-13.5805,0.6948303536779945
-13.58,0.6956153063521644
-13.5795,0.678346347520427
-13.579,0.6791313001945969
-13.5785,0.6956153063521644
-13.578,0.7073895964647127
-13.5775,0.7168090285547513
-13.577,0.7207337919256007
-13.5765,0.6948303536779945
-13.576,0.6948303536779945
-13.5755,0.6948303536779945
-13.575,0.6948303536779945
-13.5745,0.6948303536779945
-13.574,0.6948303536779945
-13.5735,0.6940454010038246
-13.573,0.6948303536779945
-13.5725,0.6948303536779945
-13.572,0.6948303536779945
-13.5715,0.6948303536779945
-13.571,0.6948303536779945
-13.5705,0.6948303536779945
-13.57,0.7042497857680331
-13.5695,0.698755117048844
-13.569,0.6909055903071452
-13.5685,0.6830560635654463
-13.568,0.6767764421720872
-13.5675,0.6642171993853692
-13.567,0.6712817734528981
-13.5665,0.6948303536779945
-13.566,0.6948303536779945
-13.5655,0.6956153063521644
-13.565,0.6940454010038246
-13.5645,0.6956153063521644
-13.564,0.6940454010038246
-13.5635,0.6948303536779945
-13.563,0.6877657796104656
-13.5625,0.672066726127068
-13.562,0.6893356849588054
-13.5615,0.7026798804196934
-13.561,0.7128842651839018
-13.5605,0.7215187445997706
-13.56,0.7018949277455235
-13.5595,0.6948303536779945
-13.559,0.6940454010038246
-13.5585,0.6948303536779945
-13.558,0.6940454010038246
-13.5575,0.6948303536779945
-13.557,0.6932604483296548
-13.5565,0.6948303536779945
-13.556,0.6940454010038246
-13.5555,0.6940454010038246
-13.555,0.6948303536779945
-13.5545,0.6948303536779945
-13.554,0.6940454010038246
-13.5535,0.7018949277455235
-13.553,0.698755117048844
-13.5525,0.6924754956554849
-13.552,0.6838410162396162
-13.5515,0.6767764421720872
-13.551,0.6673570100820486
-13.5505,0.65793757799201
-13.55,0.6940454010038246
-13.5495,0.6932604483296548
-13.549,0.6948303536779945
-13.5485,0.6948303536779945
-13.548,0.6940454010038246
-13.5475,0.6948303536779945
-13.547,0.6948303536779945
-13.5465,0.6948303536779945
-13.546,0.6689269154303884
-13.5455,0.6838410162396162
-13.545,0.6979701643746741
-13.5445,0.7081745491388826
-13.544,0.7160240758805814
-13.5435,0.7113143598355621
-13.543,0.6940454010038246
-13.5425,0.6948303536779945
-13.542,0.6940454010038246
-13.5415,0.6948303536779945
-13.541,0.6940454010038246
-13.5405,0.6948303536779945
-13.54,0.6948303536779945
-13.5395,0.6940454010038246
-13.539,0.6948303536779945
-13.5385,0.6948303536779945
-13.538,0.6940454010038246
-13.5375,0.6948303536779945
-13.537,0.6979701643746741
-13.5365,0.6995400697230139
-13.536,0.6940454010038246
-13.5355,0.6846259689137861
-13.535,0.6767764421720872
-13.5345,0.6697118681045583
-13.534,0.6563676726436702
-13.5335,0.6838410162396162
-13.533,0.6948303536779945
-13.5325,0.6940454010038246
-13.532,0.6948303536779945
-13.5315,0.6948303536779945
-13.531,0.6940454010038246
-13.5305,0.6956153063521644
-13.53,0.6948303536779945
-13.5295,0.6752065368237475
-13.529,0.6767764421720872
-13.5285,0.6924754956554849
-13.528,0.7026798804196934
-13.5275,0.712099312509732
-13.527,0.7168090285547513
-13.5265,0.6948303536779945
-13.526,0.6948303536779945
-13.5255,0.6948303536779945
-13.525,0.6940454010038246
-13.5245,0.6948303536779945
-13.524,0.6948303536779945
-13.5235,0.6948303536779945
-13.523,0.6940454010038246
-13.5225,0.6948303536779945
-13.522,0.6940454010038246
-13.5215,0.6940454010038246
-13.521,0.6948303536779945
-13.5205,0.6940454010038246
-13.52,0.6995400697230139
-13.5195,0.6932604483296548
-13.519,0.6861958742621258
-13.5185,0.6775613948462571
-13.518,0.6712817734528981
-13.5175,0.6587225306661799
-13.517,0.6689269154303884
-13.5165,0.6948303536779945
-13.516,0.6948303536779945
-13.5155,0.6948303536779945
-13.515,0.6948303536779945
-13.5145,0.6948303536779945
-13.514,0.6948303536779945
-13.5135,0.6948303536779945
-13.513,0.6861958742621258
-13.5125,0.6681419627562185
-13.512,0.6869808269362957
-13.5115,0.6995400697230139
-13.511,0.7073895964647127
-13.5105,0.7152391232064115
-13.51,0.7026798804196934
-13.5095,0.6940454010038246
-13.509,0.6948303536779945
-13.5085,0.6956153063521644
-13.508,0.6948303536779945
-13.5075,0.6956153063521644
-13.507,0.6948303536779945
-13.5065,0.6956153063521644
-13.506,0.6948303536779945
-13.5055,0.6948303536779945
-13.505,0.6948303536779945
-13.5045,0.6940454010038246
-13.504,0.6940454010038246
-13.5035,0.6971852117005042
-13.503,0.6948303536779945
-13.5025,0.6869808269362957
-13.502,0.678346347520427
-13.5015,0.6728516788012379
-13.501,0.6626472940370294
-13.5005,0.6555827199695005
-13.5,0.6940454010038246
-13.4995,0.6956153063521644
-13.499,0.6948303536779945
-13.4985,0.6940454010038246
-13.498,0.6948303536779945
-13.4975,0.6948303536779945
-13.497,0.6940454010038246
-13.4965,0.6948303536779945
-13.496,0.6642171993853692
-13.4955,0.6807012055429367
-13.495,0.6948303536779945
-13.4945,0.7034648330938632
-13.494,0.7144541705322416
-13.4935,0.7081745491388826
-13.493,0.6956153063521644
-13.4925,0.6956153063521644
-13.492,0.6940454010038246
-13.4915,0.6948303536779945
-13.491,0.6956153063521644
-13.4905,0.6948303536779945
-13.49,0.6948303536779945
-13.4895,0.6940454010038246
-13.489,0.6948303536779945
-13.4885,0.6956153063521644
-13.488,0.6948303536779945
-13.4875,0.6948303536779945
-13.487,0.6979701643746741
-13.4865,0.6971852117005042
-13.486,0.6909055903071452
-13.4855,0.6822711108912765
-13.485,0.6759914894979173
-13.4845,0.6681419627562185
-13.484,0.6540128146211607
-13.4835,0.6846259689137861
-13.483,0.6940454010038246
-13.4825,0.6956153063521644
-13.482,0.6948303536779945
-13.4815,0.6956153063521644
-13.481,0.6948303536779945
-13.4805,0.6948303536779945
-13.48,0.6956153063521644
-13.4795,0.6752065368237475
-13.479,0.6744215841495776
-13.4785,0.6909055903071452
-13.478,0.7018949277455235
-13.4775,0.7113143598355621
-13.477,0.7160240758805814
-13.4765,0.6956153063521644
-13.476,0.6956153063521644
-13.4755,0.6948303536779945
-13.475,0.6956153063521644
-13.4745,0.6956153063521644
-13.474,0.6948303536779945
-13.4735,0.6956153063521644
-13.473,0.6948303536779945
-13.4725,0.6948303536779945
-13.472,0.6948303536779945
-13.4715,0.6956153063521644
-13.471,0.6948303536779945
-13.4705,0.6956153063521644
-13.47,0.6995400697230139
-13.4695,0.691690542981315
-13.469,0.6854109215879559
-13.4685,0.6775613948462571
-13.468,0.6712817734528981
-13.4675,0.65793757799201
-13.467,0.6697118681045583
-13.4665,0.6948303536779945
-13.466,0.6956153063521644
-13.4655,0.6964002590263343
-13.465,0.6948303536779945
-13.4645,0.6956153063521644
-13.464,0.6940454010038246
-13.4635,0.6956153063521644
-13.463,0.6861958742621258
-13.4625,0.6673570100820486
-13.462,0.6869808269362957
-13.4615,0.698755117048844
-13.461,0.7081745491388826
-13.4605,0.7175939812289212
-13.46,0.7011099750713536
-13.4595,0.6956153063521644
-13.459,0.6948303536779945
-13.4585,0.6956153063521644
-13.458,0.6956153063521644
-13.4575,0.6956153063521644
-13.457,0.6948303536779945
-13.4565,0.6948303536779945
-13.456,0.6948303536779945
-13.4555,0.6948303536779945
-13.455,0.6948303536779945
-13.4545,0.6948303536779945
-13.454,0.6948303536779945
-13.4535,0.6995400697230139
-13.453,0.6964002590263343
-13.4525,0.6877657796104656
-13.452,0.6799162528687668
-13.4515,0.6736366314754078
-13.451,0.6642171993853692
-13.4505,0.6555827199695005
-13.45,0.6948303536779945
-13.4495,0.6956153063521644
-13.449,0.6956153063521644
-13.4485,0.6948303536779945
-13.448,0.6956153063521644
-13.4475,0.6956153063521644
-13.447,0.6956153063521644
-13.4465,0.6956153063521644
-13.446,0.6665720574078787
-13.4455,0.6822711108912765
-13.445,0.6948303536779945
-13.4445,0.7058196911163729
-13.444,0.7144541705322416
-13.4435,0.7089595018130525
-13.443,0.6964002590263343
-13.4425,0.6956153063521644
-13.442,0.6948303536779945
-13.4415,0.6956153063521644
-13.441,0.6948303536779945
-13.4405,0.6956153063521644
-13.44,0.6948303536779945
-13.4395,0.6956153063521644
-13.439,0.6948303536779945
-13.4385,0.6956153063521644
-13.438,0.6948303536779945
-13.4375,0.6948303536779945
-13.437,0.6979701643746741
-13.4365,0.6979701643746741
-13.436,0.691690542981315
-13.4355,0.6830560635654463
-13.435,0.6752065368237475
-13.4345,0.6681419627562185
-13.434,0.6540128146211607
-13.4335,0.6854109215879559
-13.433,0.6956153063521644
-13.4325,0.6956153063521644
-13.432,0.6948303536779945
-13.4315,0.6964002590263343
-13.431,0.6948303536779945
-13.4305,0.6956153063521644
-13.43,0.6956153063521644
-13.4295,0.6736366314754078
-13.429,0.6752065368237475
-13.4285,0.6932604483296548
-13.428,0.7026798804196934
-13.4275,0.7105294071613922
-13.427,0.7168090285547513
-13.4265,0.6956153063521644
-13.426,0.6956153063521644
-13.4255,0.6956153063521644
-13.425,0.6964002590263343
-13.4245,0.6948303536779945
-13.424,0.6956153063521644
-13.4235,0.6964002590263343
-13.423,0.6956153063521644
-13.4225,0.6956153063521644
-13.422,0.6948303536779945
-13.4215,0.6948303536779945
-13.421,0.6940454010038246
-13.4205,0.6956153063521644
-13.42,0.7003250223971837
-13.4195,0.6924754956554849
-13.419,0.6854109215879559
-13.4185,0.6767764421720872
-13.418,0.6712817734528981
-13.4175,0.65793757799201
-13.417,0.6704968207787282
-13.4165,0.6948303536779945
-13.416,0.6964002590263343
-13.4155,0.6956153063521644
-13.415,0.6956153063521644
-13.4145,0.6956153063521644
-13.414,0.6948303536779945
-13.4135,0.6956153063521644
-13.413,0.6854109215879559
-13.4125,0.6673570100820486
-13.412,0.6869808269362957
-13.4115,0.6995400697230139
-13.411,0.7081745491388826
-13.4105,0.7160240758805814
-13.41,0.7011099750713536
-13.4095,0.6956153063521644
-13.409,0.6964002590263343
-13.4085,0.6956153063521644
-13.408,0.6956153063521644
-13.4075,0.6956153063521644
-13.407,0.6956153063521644
-13.4065,0.6948303536779945
-13.406,0.6956153063521644
-13.4055,0.6956153063521644
-13.405,0.6948303536779945
-13.4045,0.6964002590263343
-13.404,0.6948303536779945
-13.4035,0.6995400697230139
-13.403,0.6956153063521644
-13.4025,0.6885507322846355
-13.402,0.6791313001945969
-13.4015,0.6728516788012379
-13.401,0.6626472940370294
-13.4005,0.6555827199695005
-13.4,0.6956153063521644
-13.3995,0.6956153063521644
-13.399,0.6940454010038246
-13.3985,0.6956153063521644
-13.398,0.6956153063521644
-13.3975,0.6956153063521644
-13.397,0.6956153063521644
-13.3965,0.6948303536779945
-13.396,0.6657871047337089
-13.3955,0.6807012055429367
-13.395,0.6956153063521644
-13.3945,0.705034738442203
-13.394,0.7128842651839018
-13.3935,0.7089595018130525
-13.393,0.6948303536779945
-13.3925,0.6948303536779945
-13.392,0.6964002590263343
-13.3915,0.6956153063521644
-13.391,0.6956153063521644
-13.3905,0.6956153063521644
-13.39,0.6948303536779945
-13.3895,0.6956153063521644
-13.389,0.6956153063521644
-13.3885,0.6948303536779945
-13.388,0.6956153063521644
-13.3875,0.6948303536779945
-13.387,0.698755117048844
-13.3865,0.6971852117005042
-13.386,0.6909055903071452
-13.3855,0.6814861582171066
-13.385,0.6744215841495776
-13.3845,0.6673570100820486
-13.384,0.6532278619469908
-13.3835,0.6846259689137861
-13.383,0.6964002590263343
-13.3825,0.6948303536779945
-13.382,0.6956153063521644
-13.3815,0.6956153063521644
-13.381,0.6948303536779945
-13.3805,0.6948303536779945
-13.38,0.6956153063521644
-13.3795,0.6736366314754078
-13.379,0.6744215841495776
-13.3785,0.6909055903071452
-13.378,0.7026798804196934
-13.3775,0.7105294071613922
-13.377,0.7152391232064115
-13.3765,0.6964002590263343
-13.376,0.6956153063521644
-13.3755,0.6964002590263343
-13.375,0.6956153063521644
-13.3745,0.6956153063521644
-13.374,0.6956153063521644
-13.3735,0.6956153063521644
-13.373,0.6956153063521644
-13.3725,0.6956153063521644
-13.372,0.6956153063521644
-13.3715,0.6956153063521644
-13.371,0.6956153063521644
-13.3705,0.6956153063521644
-13.37,0.6995400697230139
-13.3695,0.6932604483296548
-13.369,0.6854109215879559
-13.3685,0.6767764421720872
-13.368,0.6704968207787282
-13.3675,0.65793757799201
-13.367,0.6697118681045583
-13.3665,0.6964002590263343
-13.366,0.6956153063521644
-13.3655,0.6964002590263343
-13.365,0.6956153063521644
-13.3645,0.6964002590263343
-13.364,0.6956153063521644
-13.3635,0.6964002590263343
-13.363,0.6854109215879559
-13.3625,0.6673570100820486
-13.362,0.6877657796104656
-13.3615,0.698755117048844
-13.361,0.7073895964647127
-13.3605,0.7160240758805814
-13.36,0.7011099750713536
-13.3595,0.6964002590263343
-13.359,0.6956153063521644
-13.3585,0.6948303536779945
-13.358,0.6956153063521644
-13.3575,0.6956153063521644
-13.357,0.6964002590263343
-13.3565,0.6956153063521644
-13.356,0.6956153063521644
-13.3555,0.6956153063521644
-13.355,0.6956153063521644
-13.3545,0.6956153063521644
-13.354,0.6956153063521644
-13.3535,0.6979701643746741
-13.353,0.6948303536779945
-13.3525,0.6877657796104656
-13.352,0.6791313001945969
-13.3515,0.6728516788012379
-13.351,0.6626472940370294
-13.3505,0.6563676726436702
-13.35,0.6956153063521644
-13.3495,0.6956153063521644
-13.349,0.6964002590263343
-13.3485,0.6956153063521644
-13.348,0.6956153063521644
-13.3475,0.6964002590263343
-13.347,0.6948303536779945
-13.3465,0.6956153063521644
-13.346,0.6650021520595391
-13.3455,0.6807012055429367
-13.345,0.6956153063521644
-13.3445,0.7058196911163729
-13.344,0.7128842651839018
-13.3435,0.7089595018130525
-13.343,0.6956153063521644
-13.3425,0.6964002590263343
-13.342,0.6956153063521644
-13.3415,0.6964002590263343
-13.341,0.6956153063521644
-13.3405,0.6956153063521644
-13.34,0.6964002590263343
-13.3395,0.6956153063521644
-13.339,0.6956153063521644
-13.3385,0.6956153063521644
-13.338,0.6964002590263343
-13.3375,0.6948303536779945
-13.337,0.6979701643746741
-13.3365,0.6971852117005042
-13.336,0.6893356849588054
-13.3355,0.6814861582171066
-13.335,0.6744215841495776
-13.3345,0.6673570100820486
-13.334,0.6524429092728209
-13.3335,0.6861958742621258
-13.333,0.6956153063521644
-13.3325,0.6948303536779945
-13.332,0.6964002590263343
-13.3315,0.6956153063521644
-13.331,0.6964002590263343
-13.3305,0.6956153063521644
-13.33,0.6956153063521644
-13.3295,0.6744215841495776
-13.329,0.6744215841495776
-13.3285,0.6909055903071452
-13.328,0.7034648330938632
-13.3275,0.7113143598355621
-13.327,0.7152391232064115
-13.3265,0.6964002590263343
-13.326,0.6964002590263343
-13.3255,0.6964002590263343
-13.325,0.6964002590263343
-13.3245,0.6956153063521644
-13.324,0.6956153063521644
-13.3235,0.6964002590263343
-13.323,0.6964002590263343
-13.3225,0.6948303536779945
-13.322,0.6964002590263343
-13.3215,0.6964002590263343
-13.321,0.6956153063521644
-13.3205,0.6956153063521644
-13.32,0.7003250223971837
-13.3195,0.6940454010038246
-13.319,0.6854109215879559
-13.3185,0.6775613948462571
-13.318,0.6712817734528981
-13.3175,0.6587225306661799
-13.317,0.672066726127068
-13.3165,0.6956153063521644
-13.316,0.6956153063521644
-13.3155,0.6956153063521644
-13.315,0.6964002590263343
-13.3145,0.6964002590263343
-13.314,0.6964002590263343
-13.3135,0.6964002590263343
-13.313,0.6861958742621258
-13.3125,0.6689269154303884
-13.312,0.6885507322846355
-13.3115,0.698755117048844
-13.311,0.7097444544872223
-13.3105,0.7168090285547513
-13.31,0.7011099750713536
-13.3095,0.6948303536779945
-13.309,0.6956153063521644
-13.3085,0.6964002590263343
-13.308,0.6956153063521644
-13.3075,0.6956153063521644
-13.307,0.6956153063521644
-13.3065,0.6964002590263343
-13.306,0.6956153063521644
-13.3055,0.6956153063521644
-13.305,0.6956153063521644
-13.3045,0.6956153063521644
-13.304,0.6964002590263343
-13.3035,0.7003250223971837
-13.303,0.6948303536779945
-13.3025,0.6885507322846355
-13.302,0.6799162528687668
-13.3015,0.6736366314754078
-13.301,0.6642171993853692
-13.3005,0.6571526253178401
-13.3,0.6964002590263343
-13.2995,0.6971852117005042
-13.299,0.6948303536779945
-13.2985,0.6964002590263343
-13.298,0.6956153063521644
-13.2975,0.6956153063521644
-13.297,0.6964002590263343
-13.2965,0.6948303536779945
-13.296,0.6650021520595391
-13.2955,0.6822711108912765
-13.295,0.6940454010038246
-13.2945,0.705034738442203
-13.294,0.7144541705322416
-13.2935,0.7081745491388826
-13.293,0.6948303536779945
-13.2925,0.6964002590263343
-13.292,0.6956153063521644
-13.2915,0.6956153063521644
-13.291,0.6956153063521644
-13.2905,0.6956153063521644
-13.29,0.6956153063521644
-13.2895,0.6956153063521644
-13.289,0.6964002590263343
-13.2885,0.6956153063521644
-13.288,0.6964002590263343
-13.2875,0.6956153063521644
-13.287,0.6971852117005042
-13.2865,0.6956153063521644
-13.286,0.6901206376329753
-13.2855,0.6814861582171066
-13.285,0.6744215841495776
-13.2845,0.6665720574078787
-13.284,0.6524429092728209
-13.2835,0.6861958742621258
-13.283,0.6964002590263343
-13.2825,0.6956153063521644
-13.282,0.6964002590263343
-13.2815,0.6948303536779945
-13.281,0.6964002590263343
-13.2805,0.6948303536779945
-13.28,0.6956153063521644
-13.2795,0.6736366314754078
-13.279,0.6744215841495776
-13.2785,0.6909055903071452
-13.278,0.7011099750713536
-13.2775,0.7089595018130525
-13.277,0.7136692178580717
-13.2765,0.6964002590263343
-13.276,0.6948303536779945
-13.2755,0.6964002590263343
-13.275,0.6956153063521644
-13.2745,0.6964002590263343
-13.274,0.6964002590263343
-13.2735,0.6956153063521644
-13.273,0.6964002590263343
-13.2725,0.6956153063521644
-13.272,0.6956153063521644
-13.2715,0.6948303536779945
-13.271,0.6956153063521644
-13.2705,0.6964002590263343
-13.27,0.6979701643746741
-13.2695,0.691690542981315
-13.269,0.6830560635654463
-13.2685,0.6752065368237475
-13.268,0.6689269154303884
-13.2675,0.6555827199695005
-13.267,0.6704968207787282
-13.2665,0.6964002590263343
-13.266,0.6956153063521644
-13.2655,0.6956153063521644
-13.265,0.6964002590263343
-13.2645,0.6956153063521644
-13.264,0.6964002590263343
-13.2635,0.6964002590263343
-13.263,0.6838410162396162
-13.2625,0.6689269154303884
-13.262,0.6854109215879559
-13.2615,0.6979701643746741
-13.261,0.7073895964647127
-13.2605,0.7152391232064115
-13.26,0.7003250223971837
-13.2595,0.6964002590263343
-13.259,0.6964002590263343
-13.2585,0.6956153063521644
-13.258,0.6964002590263343
-13.2575,0.6956153063521644
-13.257,0.6964002590263343
-13.2565,0.6964002590263343
-13.256,0.6964002590263343
-13.2555,0.6956153063521644
-13.255,0.6956153063521644
-13.2545,0.6964002590263343
-13.254,0.6956153063521644
-13.2535,0.6979701643746741
-13.253,0.6940454010038246
-13.2525,0.6861958742621258
-13.252,0.6775613948462571
-13.2515,0.672066726127068
-13.251,0.6610773886886896
-13.2505,0.6547977672953306
-13.25,0.6964002590263343
-13.2495,0.6956153063521644
-13.249,0.6964002590263343
-13.2485,0.6956153063521644
-13.248,0.6956153063521644
-13.2475,0.6971852117005042
-13.247,0.6964002590263343
-13.2465,0.6964002590263343
-13.246,0.6626472940370294
-13.2455,0.6807012055429367
-13.245,0.6932604483296548
-13.2445,0.7042497857680331
-13.244,0.7128842651839018
-13.2435,0.7081745491388826
-13.243,0.6964002590263343
-13.2425,0.6964002590263343
-13.242,0.6956153063521644
-13.2415,0.6971852117005042
-13.241,0.6964002590263343
-13.2405,0.6971852117005042
-13.24,0.6964002590263343
-13.2395,0.6964002590263343
-13.239,0.6964002590263343
-13.2385,0.6964002590263343
-13.238,0.6948303536779945
-13.2375,0.6964002590263343
-13.237,0.6979701643746741
-13.2365,0.6948303536779945
-13.236,0.6893356849588054
-13.2355,0.6807012055429367
-13.235,0.6728516788012379
-13.2345,0.6657871047337089
-13.234,0.6508730039244811
-13.2335,0.6885507322846355
-13.233,0.6964002590263343
-13.2325,0.6956153063521644
-13.232,0.6964002590263343
-13.2315,0.6964002590263343
-13.231,0.6964002590263343
-13.2305,0.6964002590263343
-13.23,0.6956153063521644
-13.2295,0.6728516788012379
-13.229,0.6736366314754078
-13.2285,0.6901206376329753
-13.228,0.7011099750713536
-13.2275,0.7089595018130525
-13.227,0.7136692178580717
-13.2265,0.6964002590263343
-13.226,0.6964002590263343
-13.2255,0.6964002590263343
-13.225,0.6971852117005042
-13.2245,0.6956153063521644
-13.224,0.6971852117005042
-13.2235,0.6964002590263343
-13.223,0.6964002590263343
-13.2225,0.6956153063521644
-13.222,0.6964002590263343
-13.2215,0.6964002590263343
-13.221,0.6964002590263343
-13.2205,0.6964002590263343
-13.22,0.698755117048844
-13.2195,0.691690542981315
-13.219,0.6846259689137861
-13.2185,0.6767764421720872
-13.218,0.6704968207787282
-13.2175,0.6571526253178401
-13.217,0.6712817734528981
-13.2165,0.6964002590263343
-13.216,0.6964002590263343
-13.2155,0.6964002590263343
-13.215,0.6964002590263343
-13.2145,0.6964002590263343
-13.214,0.6964002590263343
-13.2135,0.6956153063521644
-13.213,0.6846259689137861
-13.2125,0.6681419627562185
-13.212,0.6869808269362957
-13.2115,0.698755117048844
-13.211,0.7089595018130525
-13.2105,0.7160240758805814
-13.21,0.7018949277455235
-13.2095,0.6964002590263343
-13.209,0.6964002590263343
-13.2085,0.6964002590263343
-13.208,0.6956153063521644
-13.2075,0.6964002590263343
-13.207,0.6964002590263343
-13.2065,0.6964002590263343
-13.206,0.6956153063521644
-13.2055,0.6971852117005042
-13.205,0.6956153063521644
-13.2045,0.6964002590263343
-13.204,0.6964002590263343
-13.2035,0.7018949277455235
-13.203,0.698755117048844
-13.2025,0.6924754956554849
-13.202,0.6838410162396162
-13.2015,0.6775613948462571
-13.201,0.6681419627562185
-13.2005,0.6618623413628595
-13.2,0.6956153063521644
-13.1995,0.6964002590263343
-13.199,0.6964002590263343
-13.1985,0.6971852117005042
-13.198,0.6956153063521644
-13.1975,0.6964002590263343
-13.197,0.6971852117005042
-13.1965,0.6956153063521644
-13.196,0.6744215841495776
-13.1955,0.6909055903071452
-13.195,0.7081745491388826
-13.1945,0.7168090285547513
-13.194,0.7262284606447899
-13.1935,0.7160240758805814
-13.193,0.6956153063521644
-13.1925,0.6964002590263343
-13.192,0.6956153063521644
-13.1915,0.6964002590263343
-13.191,0.6948303536779945
-13.1905,0.6956153063521644
-13.19,0.6964002590263343
-13.1895,0.6948303536779945
-13.189,0.6956153063521644
-13.1885,0.6964002590263343
-13.188,0.6948303536779945
-13.1875,0.6964002590263343
-13.187,0.705034738442203
-13.1865,0.7152391232064115
-13.186,0.7089595018130525
-13.1855,0.7011099750713536
-13.185,0.6948303536779945
-13.1845,0.6869808269362957
-13.184,0.672066726127068
-13.1835,0.6893356849588054
-13.183,0.6940454010038246
-13.1825,0.6956153063521644
-13.182,0.6948303536779945
-13.1815,0.6948303536779945
-13.181,0.6940454010038246
-13.1805,0.6956153063521644
-13.18,0.6940454010038246
-13.1795,0.6822711108912765
-13.179,0.6901206376329753
-13.1785,0.7058196911163729
-13.178,0.7168090285547513
-13.1775,0.7230886499481103
-13.177,0.7262284606447899
-13.1765,0.6956153063521644
-13.176,0.6940454010038246
-13.1755,0.6948303536779945
-13.175,0.6940454010038246
-13.1745,0.6948303536779945
-13.174,0.6948303536779945
-13.1735,0.6948303536779945
-13.173,0.6940454010038246
-13.1725,0.6940454010038246
-13.172,0.6948303536779945
-13.1715,0.6948303536779945
-13.171,0.6940454010038246
-13.1705,0.6948303536779945
-13.17,0.7011099750713536
-13.1695,0.6940454010038246
-13.169,0.6838410162396162
-13.1685,0.6752065368237475
-13.168,0.6681419627562185
-13.1675,0.6532278619469908
-13.167,0.6673570100820486
-13.1665,0.6948303536779945
-13.166,0.6948303536779945
-13.1655,0.6948303536779945
-13.165,0.6948303536779945
-13.1645,0.6940454010038246
-13.164,0.6948303536779945
-13.1635,0.6948303536779945
-13.163,0.6799162528687668
-13.1625,0.6547977672953306
-13.162,0.6736366314754078
-13.1615,0.6854109215879559
-13.161,0.6964002590263343
-13.1605,0.7042497857680331
-13.16,0.6979701643746741
-13.1595,0.6956153063521644
-13.159,0.6948303536779945
-13.1585,0.6956153063521644
-13.158,0.6956153063521644
-13.1575,0.6956153063521644
-13.157,0.6956153063521644
-13.1565,0.6956153063521644
-13.156,0.6956153063521644
-13.1555,0.6948303536779945
-13.155,0.6964002590263343
-13.1545,0.6948303536779945
-13.154,0.6948303536779945
-13.1535,0.6948303536779945
-13.153,0.6893356849588054
-13.1525,0.6814861582171066
-13.152,0.6736366314754078
-13.1515,0.6681419627562185
-13.151,0.65793757799201
-13.1505,0.6524429092728209
-13.15,0.6956153063521644
-13.1495,0.6964002590263343
-13.149,0.6964002590263343
-13.1485,0.6956153063521644
-13.148,0.6948303536779945
-13.1475,0.6964002590263343
-13.147,0.6948303536779945
-13.1465,0.6956153063521644
-13.146,0.6634322467111993
-13.1455,0.6791313001945969
-13.145,0.6956153063521644
-13.1445,0.7026798804196934
-13.144,0.7128842651839018
-13.1435,0.7073895964647127
-13.143,0.6948303536779945
-13.1425,0.6964002590263343
-13.142,0.6964002590263343
-13.1415,0.6948303536779945
-13.141,0.6956153063521644
-13.1405,0.6956153063521644
-13.14,0.6964002590263343
-13.1395,0.6956153063521644
-13.139,0.6964002590263343
-13.1385,0.6948303536779945
-13.138,0.6964002590263343
-13.1375,0.6956153063521644
-13.137,0.6979701643746741
-13.1365,0.6948303536779945
-13.136,0.6893356849588054
-13.1355,0.6799162528687668
-13.135,0.6728516788012379
-13.1345,0.6657871047337089
-13.134,0.651657956598651
-13.1335,0.6861958742621258
-13.133,0.6956153063521644
-13.1325,0.6956153063521644
-13.132,0.6964002590263343
-13.1315,0.6956153063521644
-13.131,0.6956153063521644
-13.1305,0.6964002590263343
-13.13,0.6956153063521644
-13.1295,0.672066726127068
-13.129,0.6752065368237475
-13.1285,0.6909055903071452
-13.128,0.7018949277455235
-13.1275,0.7105294071613922
-13.127,0.7136692178580717
-13.1265,0.6964002590263343
-13.126,0.6971852117005042
-13.1255,0.6964002590263343
-13.125,0.6956153063521644
-13.1245,0.6956153063521644
-13.124,0.6956153063521644
-13.1235,0.6964002590263343
-13.123,0.6964002590263343
-13.1225,0.6956153063521644
-13.122,0.6964002590263343
-13.1215,0.6964002590263343
-13.121,0.6956153063521644
-13.1205,0.6956153063521644
-13.12,0.698755117048844
-13.1195,0.6932604483296548
-13.119,0.6838410162396162
-13.1185,0.6759914894979173
-13.118,0.6697118681045583
-13.1175,0.6571526253178401
-13.117,0.6712817734528981
-13.1165,0.6964002590263343
-13.116,0.6956153063521644
-13.1155,0.6964002590263343
-13.115,0.6956153063521644
-13.1145,0.6964002590263343
-13.114,0.6956153063521644
-13.1135,0.6964002590263343
-13.113,0.6838410162396162
-13.1125,0.6697118681045583
-13.112,0.6869808269362957
-13.1115,0.698755117048844
-13.111,0.7081745491388826
-13.1105,0.7152391232064115
-13.11,0.7011099750713536
-13.1095,0.6956153063521644
-13.109,0.6964002590263343
-13.1085,0.6964002590263343
-13.108,0.6964002590263343
-13.1075,0.6956153063521644
-13.107,0.6964002590263343
-13.1065,0.6964002590263343
-13.106,0.6956153063521644
-13.1055,0.6964002590263343
-13.105,0.6964002590263343
-13.1045,0.6948303536779945
-13.104,0.6964002590263343
-13.1035,0.698755117048844
-13.103,0.6948303536779945
-13.1025,0.6869808269362957
-13.102,0.678346347520427
-13.1015,0.6728516788012379
-13.101,0.6626472940370294
-13.1005,0.6571526253178401
-13.1,0.6964002590263343
-13.0995,0.6964002590263343
-13.099,0.6956153063521644
-13.0985,0.6971852117005042
-13.098,0.6956153063521644
-13.0975,0.6964002590263343
-13.097,0.6956153063521644
-13.0965,0.6956153063521644
-13.096,0.6634322467111993
-13.0955,0.6814861582171066
-13.095,0.6956153063521644
-13.0945,0.7058196911163729
-13.094,0.7136692178580717
-13.0935,0.7081745491388826
-13.093,0.6964002590263343
-13.0925,0.6964002590263343
-13.092,0.6956153063521644
-13.0915,0.6964002590263343
-13.091,0.6956153063521644
-13.0905,0.6964002590263343
-13.09,0.6956153063521644
-13.0895,0.6956153063521644
-13.089,0.6956153063521644
-13.0885,0.6956153063521644
-13.088,0.6964002590263343
-13.0875,0.6956153063521644
-13.087,0.698755117048844
-13.0865,0.6964002590263343
-13.086,0.6909055903071452
-13.0855,0.6822711108912765
-13.085,0.6736366314754078
-13.0845,0.6673570100820486
-13.084,0.6524429092728209
-13.0835,0.6869808269362957
-13.083,0.6964002590263343
-13.0825,0.6956153063521644
-13.082,0.6956153063521644
-13.0815,0.6964002590263343
-13.081,0.6956153063521644
-13.0805,0.6956153063521644
-13.08,0.6948303536779945
-13.0795,0.6728516788012379
-13.079,0.6775613948462571
-13.0785,0.6924754956554849
-13.078,0.7026798804196934
-13.0775,0.7113143598355621
-13.077,0.7152391232064115
-13.0765,0.6971852117005042
-13.076,0.6964002590263343
-13.0755,0.6964002590263343
-13.075,0.6956153063521644
-13.0745,0.6956153063521644
-13.074,0.6964002590263343
-13.0735,0.6964002590263343
-13.073,0.6956153063521644
-13.0725,0.6964002590263343
-13.072,0.6956153063521644
-13.0715,0.6956153063521644
-13.071,0.6971852117005042
-13.0705,0.6956153063521644
-13.07,0.7003250223971837
-13.0695,0.6940454010038246
-13.069,0.6854109215879559
-13.0685,0.6775613948462571
-13.068,0.6712817734528981
-13.0675,0.65793757799201
-13.067,0.6728516788012379
-13.0665,0.6948303536779945
-13.066,0.6964002590263343
-13.0655,0.6964002590263343
-13.065,0.6964002590263343
-13.0645,0.6964002590263343
-13.064,0.6956153063521644
-13.0635,0.6964002590263343
-13.063,0.6830560635654463
-13.0625,0.6712817734528981
-13.062,0.6893356849588054
-13.0615,0.7003250223971837
-13.061,0.7105294071613922
-13.0605,0.7175939812289212
-13.06,0.7003250223971837
-13.0595,0.6964002590263343
-13.059,0.6971852117005042
-13.0585,0.6956153063521644
-13.058,0.6964002590263343
-13.0575,0.6964002590263343
-13.057,0.6956153063521644
-13.0565,0.6956153063521644
-13.056,0.6964002590263343
-13.0555,0.6956153063521644
-13.055,0.6956153063521644
-13.0545,0.6948303536779945
-13.054,0.6964002590263343
-13.0535,0.7003250223971837
-13.053,0.6964002590263343
-13.0525,0.6885507322846355
-13.052,0.6799162528687668
-13.0515,0.6752065368237475
-13.051,0.6634322467111993
-13.0505,0.6587225306661799
-13.05,0.6964002590263343
-13.0495,0.6956153063521644
-13.049,0.6956153063521644
-13.0485,0.6964002590263343
-13.048,0.6956153063521644
-13.0475,0.6956153063521644
-13.047,0.6964002590263343
-13.0465,0.6956153063521644
-13.046,0.6650021520595391
-13.0455,0.6854109215879559
-13.045,0.6979701643746741
-13.0445,0.7081745491388826
-13.044,0.7160240758805814
-13.0435,0.7105294071613922
-13.043,0.6940454010038246
-13.0425,0.6956153063521644
-13.042,0.6956153063521644
-13.0415,0.6956153063521644
-13.041,0.6956153063521644
-13.0405,0.6948303536779945
-13.04,0.6964002590263343
-13.0395,0.6956153063521644
-13.039,0.6956153063521644
-13.0385,0.6964002590263343
-13.038,0.6956153063521644
-13.0375,0.6964002590263343
-13.037,0.698755117048844
-13.0365,0.6995400697230139
-13.036,0.6932604483296548
-13.0355,0.6846259689137861
-13.035,0.6775613948462571
-13.0345,0.6697118681045583
-13.034,0.6563676726436702
-13.0335,0.6893356849588054
-13.033,0.6948303536779945
-13.0325,0.6971852117005042
-13.032,0.6948303536779945
-13.0315,0.6964002590263343
-13.031,0.6956153063521644
-13.0305,0.6956153063521644
-13.03,0.6956153063521644
-13.0295,0.6752065368237475
-13.029,0.6791313001945969
-13.0285,0.6948303536779945
-13.028,0.7058196911163729
-13.0275,0.7144541705322416
-13.027,0.7168090285547513
-13.0265,0.6964002590263343
-13.026,0.6956153063521644
-13.0255,0.6956153063521644
-13.025,0.6956153063521644
-13.0245,0.6956153063521644
-13.024,0.6956153063521644
-13.0235,0.6956153063521644
-13.023,0.6956153063521644
-13.0225,0.6956153063521644
-13.022,0.6956153063521644
-13.0215,0.6956153063521644
-13.021,0.6956153063521644
-13.0205,0.6956153063521644
-13.02,0.7034648330938632
-13.0195,0.6964002590263343
-13.019,0.6885507322846355
-13.0185,0.6807012055429367
-13.018,0.6744215841495776
-13.0175,0.6610773886886896
-13.017,0.6744215841495776
-13.0165,0.6940454010038246
-13.016,0.6964002590263343
-13.0155,0.6948303536779945
-13.015,0.6956153063521644
-13.0145,0.6956153063521644
-13.014,0.6956153063521644
-13.0135,0.6956153063521644
-13.013,0.6838410162396162
-13.0125,0.6752065368237475
-13.012,0.6924754956554849
-13.0115,0.7034648330938632
-13.011,0.7128842651839018
-13.0105,0.7207337919256007
-13.01,0.7011099750713536
-13.0095,0.6964002590263343
-13.009,0.6956153063521644
-13.0085,0.6964002590263343
-13.008,0.6956153063521644
-13.0075,0.6948303536779945
-13.007,0.6956153063521644
-13.0065,0.6948303536779945
-13.006,0.6964002590263343
-13.0055,0.6956153063521644
-13.005,0.6948303536779945
-13.0045,0.6956153063521644
-13.004,0.6956153063521644
-13.0035,0.7034648330938632
-13.003,0.6995400697230139
-13.0025,0.6932604483296548
-13.002,0.6838410162396162
-13.0015,0.678346347520427
-13.001,0.6681419627562185
-13.0005,0.6610773886886896
-13,0.6964002590263343
-12.9995,0.6948303536779945
-12.999,0.6956153063521644
-12.9985,0.6940454010038246
-12.998,0.6956153063521644
-12.9975,0.6940454010038246
-12.997,0.6956153063521644
-12.9965,0.6948303536779945
-12.996,0.6697118681045583
-12.9955,0.6869808269362957
-12.995,0.7026798804196934
-12.9945,0.712099312509732
-12.994,0.7199488392514308
-12.9935,0.7105294071613922
-12.993,0.6948303536779945
-12.9925,0.6956153063521644
-12.992,0.6956153063521644
-12.9915,0.6948303536779945
-12.991,0.6948303536779945
-12.9905,0.6948303536779945
-12.99,0.6940454010038246
-12.9895,0.6948303536779945
-12.989,0.6948303536779945
-12.9885,0.6948303536779945
-12.988,0.6948303536779945
-12.9875,0.6948303536779945
-12.987,0.6995400697230139
-12.9865,0.7026798804196934
-12.986,0.6964002590263343
-12.9855,0.6869808269362957
-12.985,0.6807012055429367
-12.9845,0.6728516788012379
-12.984,0.65793757799201
-12.9835,0.6893356849588054
-12.983,0.6940454010038246
-12.9825,0.6948303536779945
-12.982,0.6948303536779945
-12.9815,0.6948303536779945
-12.981,0.6948303536779945
-12.9805,0.6940454010038246
-12.98,0.6948303536779945
-12.9795,0.6759914894979173
-12.979,0.6807012055429367
-12.9785,0.6995400697230139
-12.978,0.7073895964647127
-12.9775,0.7175939812289212
-12.977,0.718378933903091
-12.9765,0.6956153063521644
-12.976,0.6940454010038246
-12.9755,0.6948303536779945
-12.975,0.6948303536779945
-12.9745,0.6948303536779945
-12.974,0.6940454010038246
-12.9735,0.6956153063521644
-12.973,0.6948303536779945
-12.9725,0.6956153063521644
-12.972,0.6948303536779945
-12.9715,0.6948303536779945
-12.971,0.6940454010038246
-12.9705,0.6964002590263343
-12.97,0.705034738442203
-12.9695,0.6979701643746741
-12.969,0.6893356849588054
-12.9685,0.6814861582171066
-12.968,0.6752065368237475
-12.9675,0.6626472940370294
-12.967,0.6744215841495776
-12.9665,0.6948303536779945
-12.966,0.6940454010038246
-12.9655,0.6948303536779945
-12.965,0.6948303536779945
-12.9645,0.6940454010038246
-12.964,0.6948303536779945
-12.9635,0.6948303536779945
-12.963,0.6822711108912765
-12.9625,0.6759914894979173
-12.962,0.6924754956554849
-12.9615,0.7042497857680331
-12.961,0.7136692178580717
-12.9605,0.7207337919256007
-12.96,0.7003250223971837
-12.9595,0.6940454010038246
-12.959,0.6948303536779945
-12.9585,0.6948303536779945
-12.958,0.6940454010038246
-12.9575,0.6948303536779945
-12.957,0.6948303536779945
-12.9565,0.6940454010038246
-12.956,0.6948303536779945
-12.9555,0.6948303536779945
-12.955,0.6940454010038246
-12.9545,0.6940454010038246
-12.954,0.6948303536779945
-12.9535,0.7026798804196934
-12.953,0.6979701643746741
-12.9525,0.6924754956554849
-12.952,0.6822711108912765
-12.9515,0.6767764421720872
-12.951,0.6650021520595391
-12.9505,0.6587225306661799
-12.95,0.6940454010038246
-12.9495,0.6948303536779945
-12.949,0.6940454010038246
-12.9485,0.6948303536779945
-12.948,0.6948303536779945
-12.9475,0.6948303536779945
-12.947,0.6948303536779945
-12.9465,0.6940454010038246
-12.946,0.6673570100820486
-12.9455,0.6846259689137861
-12.945,0.6995400697230139
-12.9445,0.7089595018130525
-12.944,0.7168090285547513
-12.9435,0.7089595018130525
-12.943,0.6940454010038246
-12.9425,0.6956153063521644
-12.942,0.6940454010038246
-12.9415,0.6948303536779945
-12.941,0.6940454010038246
-12.9405,0.6940454010038246
-12.94,0.6956153063521644
-12.9395,0.6940454010038246
-12.939,0.6940454010038246
-12.9385,0.6940454010038246
-12.938,0.6948303536779945
-12.9375,0.6940454010038246
-12.937,0.6995400697230139
-12.9365,0.6971852117005042
-12.936,0.6924754956554849
-12.9355,0.6830560635654463
-12.935,0.6767764421720872
-12.9345,0.6681419627562185
-12.934,0.6532278619469908
-12.9335,0.6877657796104656
-12.933,0.6948303536779945
-12.9325,0.6940454010038246
-12.932,0.6956153063521644
-12.9315,0.6932604483296548
-12.931,0.6948303536779945
-12.9305,0.6956153063521644
-12.93,0.6948303536779945
-12.9295,0.672066726127068
-12.929,0.678346347520427
-12.9285,0.6932604483296548
-12.928,0.705034738442203
-12.9275,0.712099312509732
-12.927,0.7160240758805814
-12.9265,0.6948303536779945
-12.926,0.6948303536779945
-12.9255,0.6956153063521644
-12.925,0.6948303536779945
-12.9245,0.6948303536779945
-12.924,0.6948303536779945
-12.9235,0.6948303536779945
-12.923,0.6948303536779945
-12.9225,0.6940454010038246
-12.922,0.6948303536779945
-12.9215,0.6948303536779945
-12.921,0.6948303536779945
-12.9205,0.6948303536779945
-12.92,0.6995400697230139
-12.9195,0.6932604483296548
-12.919,0.6846259689137861
-12.9185,0.6767764421720872
-12.918,0.6704968207787282
-12.9175,0.65793757799201
-12.917,0.672066726127068
-12.9165,0.6948303536779945
-12.916,0.6948303536779945
-12.9155,0.6956153063521644
-12.915,0.6940454010038246
-12.9145,0.6940454010038246
-12.914,0.6948303536779945
-12.9135,0.6940454010038246
-12.913,0.6814861582171066
-12.9125,0.6697118681045583
-12.912,0.6885507322846355
-12.9115,0.6995400697230139
-12.911,0.7073895964647127
-12.9105,0.7160240758805814
-12.91,0.698755117048844
-12.9095,0.6948303536779945
-12.909,0.6948303536779945
-12.9085,0.6956153063521644
-12.908,0.6948303536779945
-12.9075,0.6948303536779945
-12.907,0.6948303536779945
-12.9065,0.6948303536779945
-12.906,0.6948303536779945
-12.9055,0.6948303536779945
-12.905,0.6948303536779945
-12.9045,0.6940454010038246
-12.904,0.6948303536779945
-12.9035,0.698755117048844
-12.903,0.6940454010038246
-12.9025,0.6877657796104656
-12.902,0.6775613948462571
-12.9015,0.672066726127068
-12.901,0.6610773886886896
-12.9005,0.6571526253178401
-12.9,0.6964002590263343
-12.8995,0.6940454010038246
-12.899,0.6948303536779945
-12.8985,0.6948303536779945
-12.898,0.6956153063521644
-12.8975,0.6948303536779945
-12.897,0.6948303536779945
-12.8965,0.6948303536779945
-12.896,0.6642171993853692
-12.8955,0.6807012055429367
-12.895,0.6964002590263343
-12.8945,0.705034738442203
-12.894,0.7144541705322416
-12.8935,0.7066046437905428
-12.893,0.6948303536779945
-12.8925,0.6964002590263343
-12.892,0.6948303536779945
-12.8915,0.6956153063521644
-12.891,0.6940454010038246
-12.8905,0.6940454010038246
-12.89,0.6956153063521644
-12.8895,0.6948303536779945
-12.889,0.6948303536779945
-12.8885,0.6948303536779945
-12.888,0.6948303536779945
-12.8875,0.6948303536779945
-12.887,0.6979701643746741
-12.8865,0.6948303536779945
-12.886,0.6901206376329753
-12.8855,0.6814861582171066
-12.885,0.6736366314754078
-12.8845,0.6665720574078787
-12.884,0.651657956598651
-12.8835,0.6901206376329753
-12.883,0.6940454010038246
-12.8825,0.6948303536779945
-12.882,0.6956153063521644
-12.8815,0.6948303536779945
-12.881,0.6948303536779945
-12.8805,0.6948303536779945
-12.88,0.6940454010038246
-12.8795,0.6712817734528981
-12.879,0.6767764421720872
-12.8785,0.6924754956554849
-12.878,0.7018949277455235
-12.8775,0.7105294071613922
-12.877,0.7144541705322416
-12.8765,0.6948303536779945
-12.876,0.6956153063521644
-12.8755,0.6956153063521644
-12.875,0.6956153063521644
-12.8745,0.6948303536779945
-12.874,0.6956153063521644
-12.8735,0.6948303536779945
-12.873,0.6948303536779945
-12.8725,0.6948303536779945
-12.872,0.6956153063521644
-12.8715,0.6948303536779945
-12.871,0.6948303536779945
-12.8705,0.6948303536779945
-12.87,0.6995400697230139
-12.8695,0.6924754956554849
-12.869,0.6846259689137861
-12.8685,0.6759914894979173
-12.868,0.6712817734528981
-12.8675,0.6571526253178401
-12.867,0.6728516788012379
-12.8665,0.6964002590263343
-12.866,0.6948303536779945
-12.8655,0.6948303536779945
-12.865,0.6948303536779945
-12.8645,0.6956153063521644
-12.864,0.6956153063521644
-12.8635,0.6948303536779945
-12.863,0.6807012055429367
-12.8625,0.6712817734528981
-12.862,0.6885507322846355
-12.8615,0.6995400697230139
-12.861,0.7089595018130525
-12.8605,0.7175939812289212
-12.86,0.698755117048844
-12.8595,0.6964002590263343
-12.859,0.6956153063521644
-12.8585,0.6948303536779945
-12.858,0.6948303536779945
-12.8575,0.6948303536779945
-12.857,0.6956153063521644
-12.8565,0.6956153063521644
-12.856,0.6956153063521644
-12.8555,0.6948303536779945
-12.855,0.6956153063521644
-12.8545,0.6948303536779945
-12.854,0.6948303536779945
-12.8535,0.6995400697230139
-12.853,0.6940454010038246
-12.8525,0.6877657796104656
-12.852,0.6791313001945969
-12.8515,0.672066726127068
-12.851,0.6618623413628595
-12.8505,0.6587225306661799
-12.85,0.6964002590263343
-12.8495,0.6948303536779945
-12.849,0.6956153063521644
-12.8485,0.6948303536779945
-12.848,0.6956153063521644
-12.8475,0.6948303536779945
-12.847,0.6956153063521644
-12.8465,0.6940454010038246
-12.846,0.6642171993853692
-12.8455,0.6830560635654463
-12.845,0.6964002590263343
-12.8445,0.7058196911163729
-12.844,0.7136692178580717
-12.8435,0.7066046437905428
-12.843,0.6956153063521644
-12.8425,0.6956153063521644
-12.842,0.6948303536779945
-12.8415,0.6956153063521644
-12.841,0.6948303536779945
-12.8405,0.6956153063521644
-12.84,0.6948303536779945
-12.8395,0.6956153063521644
-12.839,0.6948303536779945
-12.8385,0.6956153063521644
-12.838,0.6948303536779945
-12.8375,0.6956153063521644
-12.837,0.6971852117005042
-12.8365,0.6971852117005042
-12.836,0.6909055903071452
-12.8355,0.6814861582171066
-12.835,0.6752065368237475
-12.8345,0.6665720574078787
-12.834,0.651657956598651
-12.8335,0.6909055903071452
-12.833,0.6956153063521644
-12.8325,0.6948303536779945
-12.832,0.6956153063521644
-12.8315,0.6964002590263343
-12.831,0.6948303536779945
-12.8305,0.6956153063521644
-12.83,0.6956153063521644
