#Digilent WaveForms Oscilloscope Acquisition
#Device Name: EExplorer
#Serial Number: SN:210151262793
#Date Time: 2020-04-24 19:39:27.140
#Sample rate: 2000Hz
#Samples: 60000
#Trigger: Source: EKG Board Output Type: Edge Condition: Rising Level: 500 mV Hyst.: Auto HoldOff: 0 s
#EKG Board Output: Range: 20 mV/div Offset: -688 mV Attenuation: 1 X
#Wavegen Channel 1: Disabled
#Mode: Simple
#Type: Sine
#Frequency: 5 Hz
#Period: 200 ms
#Amplitude: 10 mV
#Offset: 130 mV
#Symmetry: 50 %
#Phase: 0 °
#Wavegen Channel 2: Disabled
#Mode: Simple
#Type: Sine
#Frequency: 5 Hz
#Period: 200 ms
#Amplitude: 10 mV
#Offset: 15 mV
#Symmetry: 50 %
#Phase: 180 °
#Power Supplies: ON
#Fixed Supply: OFF
#Voltage: 3.3 V
#Positive Supply: ON
#Voltage: 4 V Readback: 4 V
#Current: 500 mA Readback: 18 mA
#Negative Supply: OFF
#Voltage: -2 V
#Current: -500 mA
#Reference 1: OFF
#Voltage: 0 V
#Reference 2: OFF
#Voltage: 0 V

#Gathering EKG Data
#2020/04/24
#EKG-1.0
#Filename indicates configuration
#30 second recording, 2kHz sample rate, 60k samples
#Time (s),EKG Board Output (V)
-15,0.5951413640584194
-14.9995,0.5959263167325893
-14.999,0.5967112694067592
-14.9985,0.5974962220809291
-14.998,0.598281174755099
-14.9975,0.598281174755099
-14.997,0.5998510801034388
-14.9965,0.5990661274292689
-14.996,0.6375288084635932
-14.9955,0.8282723082868746
-14.995,0.8298422136352144
-14.9945,0.8298422136352144
-14.994,0.8298422136352144
-14.9935,0.8298422136352144
-14.993,0.8267024029385348
-14.9925,0.7756804791174925
-14.992,0.5967112694067592
-14.9915,0.5943564113842495
-14.991,0.5959263167325893
-14.9905,0.5967112694067592
-14.99,0.5974962220809291
-14.9895,0.5974962220809291
-14.989,0.598281174755099
-14.9885,0.6759914894979173
-14.988,0.8533907938603109
-14.9875,0.8612403206020096
-14.987,0.8604553679278398
-14.9865,0.8620252732761795
-14.986,0.8588854625795
-14.9855,0.785884863881701
-14.985,0.5935714587100797
-14.9845,0.5951413640584194
-14.984,0.5959263167325893
-14.9835,0.5959263167325893
-14.983,0.5967112694067592
-14.9825,0.5974962220809291
-14.982,0.5974962220809291
-14.9815,0.598281174755099
-14.981,0.598281174755099
-14.9805,0.5990661274292689
-14.98,0.5998510801034388
-14.9795,0.6006360327776086
-14.979,0.7882397219042105
-14.9785,0.8290572609610445
-14.978,0.8298422136352144
-14.9775,0.8298422136352144
-14.977,0.8306271663093843
-14.9765,0.8282723082868746
-14.976,0.8235625922418554
-14.9755,0.6273244236993847
-14.975,0.5951413640584194
-14.9745,0.5967112694067592
-14.974,0.5974962220809291
-14.9735,0.5967112694067592
-14.973,0.598281174755099
-14.9725,0.5990661274292689
-14.972,0.6006360327776086
-14.9715,0.845541267118612
-14.971,0.8604553679278398
-14.9705,0.8620252732761795
-14.97,0.8628102259503494
-14.9695,0.8612403206020096
-14.969,0.8588854625795
-14.9685,0.6171200389351762
-14.968,0.5935714587100797
-14.9675,0.5943564113842495
-14.967,0.5951413640584194
-14.9665,0.5959263167325893
-14.966,0.5967112694067592
-14.9655,0.5974962220809291
-14.965,0.5974962220809291
-14.9645,0.598281174755099
-14.964,0.5990661274292689
-14.9635,0.5998510801034388
-14.963,0.5998510801034388
-14.9625,0.7152391232064115
-14.962,0.8282723082868746
-14.9615,0.8290572609610445
-14.961,0.8282723082868746
-14.9605,0.8290572609610445
-14.96,0.8298422136352144
-14.9595,0.825132497590195
-14.959,0.698755117048844
-14.9585,0.5959263167325893
-14.958,0.5959263167325893
-14.9575,0.5967112694067592
-14.957,0.5974962220809291
-14.9565,0.598281174755099
-14.956,0.598281174755099
-14.9555,0.5990661274292689
-14.955,0.7678309523757937
-14.9545,0.8573155572311603
-14.954,0.8628102259503494
-14.9535,0.8643801312986892
-14.953,0.8620252732761795
-14.9525,0.8612403206020096
-14.952,0.6964002590263343
-14.9515,0.5935714587100797
-14.951,0.5959263167325893
-14.9505,0.5951413640584194
-14.95,0.5967112694067592
-14.9495,0.5959263167325893
-14.949,0.5967112694067592
-14.9485,0.5974962220809291
-14.948,0.598281174755099
-14.9475,0.5990661274292689
-14.947,0.5990661274292689
-14.9465,0.5998510801034388
-14.946,0.6383137611377629
-14.9455,0.8298422136352144
-14.945,0.8298422136352144
-14.9445,0.8298422136352144
-14.944,0.8290572609610445
-14.9435,0.8314121189835542
-14.943,0.8259174502643649
-14.9425,0.7741105737691527
-14.942,0.5967112694067592
-14.9415,0.5951413640584194
-14.941,0.5959263167325893
-14.9405,0.5967112694067592
-14.94,0.5974962220809291
-14.9395,0.598281174755099
-14.939,0.598281174755099
-14.9385,0.6791313001945969
-14.938,0.8549606992086506
-14.9375,0.8620252732761795
-14.937,0.8635951786245193
-14.9365,0.8628102259503494
-14.936,0.8612403206020096
-14.9355,0.7882397219042105
-14.935,0.5935714587100797
-14.9345,0.5951413640584194
-14.934,0.5943564113842495
-14.9335,0.5959263167325893
-14.933,0.5967112694067592
-14.9325,0.5967112694067592
-14.932,0.5967112694067592
-14.9315,0.598281174755099
-14.931,0.598281174755099
-14.9305,0.5990661274292689
-14.93,0.5998510801034388
-14.9295,0.6006360327776086
-14.929,0.79216448527506
-14.9285,0.8298422136352144
-14.928,0.8290572609610445
-14.9275,0.8298422136352144
-14.927,0.8314121189835542
-14.9265,0.8282723082868746
-14.926,0.8235625922418554
-14.9255,0.6233996603285352
-14.925,0.5943564113842495
-14.9245,0.5951413640584194
-14.924,0.5974962220809291
-14.9235,0.5974962220809291
-14.923,0.598281174755099
-14.9225,0.598281174755099
-14.922,0.6029908908001183
-14.9215,0.8510359358378012
-14.921,0.8581005099053302
-14.9205,0.8620252732761795
-14.92,0.8620252732761795
-14.9195,0.8604553679278398
-14.919,0.8588854625795
-14.9185,0.6084855595193075
-14.918,0.5951413640584194
-14.9175,0.5943564113842495
-14.917,0.5951413640584194
-14.9165,0.5959263167325893
-14.916,0.5967112694067592
-14.9155,0.5967112694067592
-14.915,0.5974962220809291
-14.9145,0.5990661274292689
-14.914,0.5990661274292689
-14.9135,0.5998510801034388
-14.913,0.5998510801034388
-14.9125,0.7168090285547513
-14.912,0.8298422136352144
-14.9115,0.8298422136352144
-14.911,0.8298422136352144
-14.9105,0.8306271663093843
-14.91,0.8306271663093843
-14.9095,0.8243475449160251
-14.909,0.6995400697230139
-14.9085,0.5951413640584194
-14.908,0.5951413640584194
-14.9075,0.5967112694067592
-14.907,0.5974962220809291
-14.9065,0.598281174755099
-14.906,0.598281174755099
-14.9055,0.5990661274292689
-14.905,0.7646911416791141
-14.9045,0.8565306045569904
-14.904,0.8612403206020096
-14.9035,0.8620252732761795
-14.903,0.8612403206020096
-14.9025,0.8596704152536699
-14.902,0.6995400697230139
-14.9015,0.5943564113842495
-14.901,0.5951413640584194
-14.9005,0.5951413640584194
-14.9,0.5967112694067592
-14.8995,0.5959263167325893
-14.899,0.5967112694067592
-14.8985,0.5974962220809291
-14.898,0.598281174755099
-14.8975,0.5990661274292689
-14.897,0.5990661274292689
-14.8965,0.5998510801034388
-14.896,0.6414535718344425
-14.8955,0.8306271663093843
-14.895,0.8282723082868746
-14.8945,0.8290572609610445
-14.894,0.8298422136352144
-14.8935,0.8298422136352144
-14.893,0.8267024029385348
-14.8925,0.771755715746643
-14.892,0.5967112694067592
-14.8915,0.5943564113842495
-14.891,0.5967112694067592
-14.8905,0.5967112694067592
-14.89,0.5974962220809291
-14.8895,0.598281174755099
-14.889,0.598281174755099
-14.8885,0.6838410162396162
-14.888,0.8541757465344807
-14.8875,0.8628102259503494
-14.887,0.8643801312986892
-14.8865,0.8620252732761795
-14.886,0.8612403206020096
-14.8855,0.7843149585333612
-14.885,0.5951413640584194
-14.8845,0.5951413640584194
-14.884,0.5951413640584194
-14.8835,0.5959263167325893
-14.883,0.5967112694067592
-14.8825,0.5967112694067592
-14.882,0.5974962220809291
-14.8815,0.598281174755099
-14.881,0.598281174755099
-14.8805,0.5990661274292689
-14.88,0.6006360327776086
-14.8795,0.6006360327776086
-14.879,0.7953042959717396
-14.8785,0.8282723082868746
-14.878,0.8298422136352144
-14.8775,0.8298422136352144
-14.877,0.8306271663093843
-14.8765,0.8274873556127047
-14.876,0.8219926868935156
-14.8755,0.6194748969576858
-14.875,0.5943564113842495
-14.8745,0.5967112694067592
-14.874,0.5974962220809291
-14.8735,0.5974962220809291
-14.873,0.598281174755099
-14.8725,0.5990661274292689
-14.872,0.604560796148458
-14.8715,0.8478961251411217
-14.871,0.8588854625795
-14.8705,0.8628102259503494
-14.87,0.8612403206020096
-14.8695,0.8620252732761795
-14.869,0.8581005099053302
-14.8685,0.6084855595193075
-14.868,0.5943564113842495
-14.8675,0.5951413640584194
-14.867,0.5951413640584194
-14.8665,0.5967112694067592
-14.866,0.5967112694067592
-14.8655,0.5974962220809291
-14.865,0.598281174755099
-14.8645,0.598281174755099
-14.864,0.5990661274292689
-14.8635,0.5998510801034388
-14.863,0.6006360327776086
-14.8625,0.718378933903091
-14.862,0.8290572609610445
-14.8615,0.8290572609610445
-14.861,0.8290572609610445
-14.8605,0.8306271663093843
-14.86,0.8290572609610445
-14.8595,0.825132497590195
-14.859,0.6964002590263343
-14.8585,0.5951413640584194
-14.858,0.5951413640584194
-14.8575,0.5967112694067592
-14.857,0.5974962220809291
-14.8565,0.5967112694067592
-14.856,0.5974962220809291
-14.8555,0.5990661274292689
-14.855,0.7686159050499635
-14.8545,0.8581005099053302
-14.854,0.8620252732761795
-14.8535,0.8620252732761795
-14.853,0.8604553679278398
-14.8525,0.8604553679278398
-14.852,0.6956153063521644
-14.8515,0.5943564113842495
-14.851,0.5943564113842495
-14.8505,0.5959263167325893
-14.85,0.5967112694067592
-14.8495,0.5959263167325893
-14.849,0.5974962220809291
-14.8485,0.598281174755099
-14.848,0.598281174755099
-14.8475,0.5990661274292689
-14.847,0.5998510801034388
-14.8465,0.6006360327776086
-14.846,0.6430234771827823
-14.8455,0.8282723082868746
-14.845,0.8282723082868746
-14.8445,0.8290572609610445
-14.844,0.8282723082868746
-14.8435,0.8298422136352144
-14.843,0.825132497590195
-14.8425,0.7686159050499635
-14.842,0.5951413640584194
-14.8415,0.5951413640584194
-14.841,0.5959263167325893
-14.8405,0.5974962220809291
-14.84,0.5974962220809291
-14.8395,0.598281174755099
-14.839,0.598281174755099
-14.8385,0.6861958742621258
-14.838,0.852605841186141
-14.8375,0.8612403206020096
-14.837,0.8620252732761795
-14.8365,0.8620252732761795
-14.836,0.8596704152536699
-14.8355,0.778820289814172
-14.835,0.5943564113842495
-14.8345,0.5943564113842495
-14.834,0.5943564113842495
-14.8335,0.5959263167325893
-14.833,0.5959263167325893
-14.8325,0.5967112694067592
-14.832,0.5974962220809291
-14.8315,0.598281174755099
-14.831,0.598281174755099
-14.8305,0.5990661274292689
-14.83,0.5998510801034388
-14.8295,0.5998510801034388
-14.829,0.7945193432975697
-14.8285,0.8274873556127047
-14.828,0.8267024029385348
-14.8275,0.8290572609610445
-14.827,0.8290572609610445
-14.8265,0.8274873556127047
-14.826,0.8219926868935156
-14.8255,0.6194748969576858
-14.825,0.5951413640584194
-14.8245,0.5951413640584194
-14.824,0.5967112694067592
-14.8235,0.5974962220809291
-14.823,0.598281174755099
-14.8225,0.5990661274292689
-14.822,0.6037758434742881
-14.8215,0.8502509831636313
-14.821,0.8588854625795
-14.8205,0.8643801312986892
-14.82,0.8628102259503494
-14.8195,0.8620252732761795
-14.819,0.8588854625795
-14.8185,0.6077006068451376
-14.818,0.5951413640584194
-14.8175,0.5943564113842495
-14.817,0.5959263167325893
-14.8165,0.5959263167325893
-14.816,0.5967112694067592
-14.8155,0.5974962220809291
-14.815,0.5974962220809291
-14.8145,0.5990661274292689
-14.814,0.5990661274292689
-14.8135,0.5998510801034388
-14.813,0.5998510801034388
-14.8125,0.7207337919256007
-14.812,0.8306271663093843
-14.8115,0.8298422136352144
-14.811,0.8306271663093843
-14.8105,0.8298422136352144
-14.81,0.8314121189835542
-14.8095,0.825132497590195
-14.809,0.6948303536779945
-14.8085,0.5951413640584194
-14.808,0.5959263167325893
-14.8075,0.5959263167325893
-14.807,0.5974962220809291
-14.8065,0.5974962220809291
-14.806,0.5990661274292689
-14.8055,0.5990661274292689
-14.805,0.7725406684208129
-14.8045,0.8588854625795
-14.804,0.8628102259503494
-14.8035,0.8643801312986892
-14.803,0.8635951786245193
-14.8025,0.8604553679278398
-14.802,0.6940454010038246
-14.8015,0.5943564113842495
-14.801,0.5943564113842495
-14.8005,0.5959263167325893
-14.8,0.5959263167325893
-14.7995,0.5967112694067592
-14.799,0.5974962220809291
-14.7985,0.598281174755099
-14.798,0.598281174755099
-14.7975,0.5990661274292689
-14.797,0.5990661274292689
-14.7965,0.5998510801034388
-14.796,0.645378335205292
-14.7955,0.8314121189835542
-14.795,0.8298422136352144
-14.7945,0.8290572609610445
-14.794,0.8306271663093843
-14.7935,0.8306271663093843
-14.793,0.8274873556127047
-14.7925,0.7694008577241334
-14.792,0.5959263167325893
-14.7915,0.5951413640584194
-14.791,0.5959263167325893
-14.7905,0.5967112694067592
-14.79,0.5974962220809291
-14.7895,0.5974962220809291
-14.789,0.5990661274292689
-14.7885,0.6885507322846355
-14.788,0.8557456518828205
-14.7875,0.8620252732761795
-14.787,0.8643801312986892
-14.7865,0.8628102259503494
-14.786,0.8612403206020096
-14.7855,0.7803901951625117
-14.785,0.5951413640584194
-14.7845,0.5935714587100797
-14.784,0.5951413640584194
-14.7835,0.5951413640584194
-14.783,0.5967112694067592
-14.7825,0.5967112694067592
-14.782,0.5974962220809291
-14.7815,0.5974962220809291
-14.781,0.598281174755099
-14.7805,0.5990661274292689
-14.78,0.5998510801034388
-14.7795,0.6006360327776086
-14.779,0.7976591539942491
-14.7785,0.8298422136352144
-14.778,0.8298422136352144
-14.7775,0.8298422136352144
-14.777,0.8306271663093843
-14.7765,0.8282723082868746
-14.776,0.8227776395676855
-14.7755,0.6147651809126665
-14.775,0.5951413640584194
-14.7745,0.5959263167325893
-14.774,0.5967112694067592
-14.7735,0.5967112694067592
-14.773,0.598281174755099
-14.7725,0.598281174755099
-14.772,0.6037758434742881
-14.7715,0.852605841186141
-14.771,0.8588854625795
-14.7705,0.8628102259503494
-14.77,0.8612403206020096
-14.7695,0.8596704152536699
-14.769,0.8573155572311603
-14.7685,0.6053457488226279
-14.768,0.5943564113842495
-14.7675,0.5951413640584194
-14.767,0.5959263167325893
-14.7665,0.5967112694067592
-14.766,0.5967112694067592
-14.7655,0.598281174755099
-14.765,0.598281174755099
-14.7645,0.5990661274292689
-14.764,0.5990661274292689
-14.7635,0.5990661274292689
-14.763,0.5998510801034388
-14.7625,0.7230886499481103
-14.762,0.8298422136352144
-14.7615,0.8282723082868746
-14.761,0.8290572609610445
-14.7605,0.8298422136352144
-14.76,0.8282723082868746
-14.7595,0.8227776395676855
-14.759,0.6885507322846355
-14.7585,0.5959263167325893
-14.758,0.5951413640584194
-14.7575,0.5967112694067592
-14.757,0.5967112694067592
-14.7565,0.5967112694067592
-14.756,0.598281174755099
-14.7555,0.598281174755099
-14.755,0.7741105737691527
-14.7545,0.8557456518828205
-14.754,0.8620252732761795
-14.7535,0.8612403206020096
-14.753,0.8604553679278398
-14.7525,0.8581005099053302
-14.752,0.6877657796104656
-14.7515,0.5943564113842495
-14.751,0.5935714587100797
-14.7505,0.5959263167325893
-14.75,0.5959263167325893
-14.7495,0.5959263167325893
-14.749,0.5974962220809291
-14.7485,0.5974962220809291
-14.748,0.5974962220809291
-14.7475,0.598281174755099
-14.747,0.5990661274292689
-14.7465,0.5998510801034388
-14.746,0.6445933825311221
-14.7455,0.8282723082868746
-14.745,0.8267024029385348
-14.7445,0.8274873556127047
-14.744,0.8274873556127047
-14.7435,0.8282723082868746
-14.743,0.8243475449160251
-14.7425,0.7686159050499635
-14.742,0.5943564113842495
-14.7415,0.5951413640584194
-14.741,0.5967112694067592
-14.7405,0.5974962220809291
-14.74,0.5974962220809291
-14.7395,0.598281174755099
-14.739,0.598281174755099
-14.7385,0.6885507322846355
-14.738,0.852605841186141
-14.7375,0.8596704152536699
-14.737,0.8620252732761795
-14.7365,0.8604553679278398
-14.736,0.8596704152536699
-14.7355,0.7764654317916624
-14.735,0.5943564113842495
-14.7345,0.5951413640584194
-14.734,0.5951413640584194
-14.7335,0.5959263167325893
-14.733,0.5967112694067592
-14.7325,0.5967112694067592
-14.732,0.598281174755099
-14.7315,0.598281174755099
-14.731,0.5990661274292689
-14.7305,0.5998510801034388
-14.73,0.5998510801034388
-14.7295,0.6006360327776086
-14.729,0.8015839173650986
-14.7285,0.8274873556127047
-14.728,0.8290572609610445
-14.7275,0.8290572609610445
-14.727,0.8282723082868746
-14.7265,0.8267024029385348
-14.726,0.8204227815451758
-14.7255,0.6147651809126665
-14.725,0.5959263167325893
-14.7245,0.5967112694067592
-14.724,0.5967112694067592
-14.7235,0.5974962220809291
-14.723,0.598281174755099
-14.7225,0.598281174755099
-14.722,0.6077006068451376
-14.7215,0.8533907938603109
-14.721,0.8596704152536699
-14.7205,0.8620252732761795
-14.72,0.8620252732761795
-14.7195,0.8604553679278398
-14.719,0.8573155572311603
-14.7185,0.6029908908001183
-14.718,0.5935714587100797
-14.7175,0.5951413640584194
-14.717,0.5951413640584194
-14.7165,0.5959263167325893
-14.716,0.5967112694067592
-14.7155,0.5974962220809291
-14.715,0.598281174755099
-14.7145,0.5990661274292689
-14.714,0.5990661274292689
-14.7135,0.5990661274292689
-14.713,0.6006360327776086
-14.7125,0.7238736026222802
-14.712,0.8290572609610445
-14.7115,0.8290572609610445
-14.711,0.8274873556127047
-14.7105,0.8282723082868746
-14.71,0.8290572609610445
-14.7095,0.8235625922418554
-14.709,0.6893356849588054
-14.7085,0.5967112694067592
-14.708,0.5967112694067592
-14.7075,0.5959263167325893
-14.707,0.598281174755099
-14.7065,0.598281174755099
-14.706,0.5990661274292689
-14.7055,0.5990661274292689
-14.705,0.7803901951625117
-14.7045,0.8565306045569904
-14.704,0.8620252732761795
-14.7035,0.8604553679278398
-14.703,0.8604553679278398
-14.7025,0.8588854625795
-14.702,0.691690542981315
-14.7015,0.5943564113842495
-14.701,0.5951413640584194
-14.7005,0.5959263167325893
-14.7,0.5959263167325893
-14.6995,0.5967112694067592
-14.699,0.5974962220809291
-14.6985,0.5974962220809291
-14.698,0.598281174755099
-14.6975,0.5990661274292689
-14.697,0.5998510801034388
-14.6965,0.6006360327776086
-14.696,0.6493030985761413
-14.6955,0.8282723082868746
-14.695,0.8282723082868746
-14.6945,0.8282723082868746
-14.694,0.8290572609610445
-14.6935,0.8298422136352144
-14.693,0.8259174502643649
-14.6925,0.7678309523757937
-14.692,0.5935714587100797
-14.6915,0.5967112694067592
-14.691,0.5959263167325893
-14.6905,0.5974962220809291
-14.69,0.5974962220809291
-14.6895,0.598281174755099
-14.689,0.5990661274292689
-14.6885,0.6940454010038246
-14.688,0.8549606992086506
-14.6875,0.8596704152536699
-14.687,0.8604553679278398
-14.6865,0.8604553679278398
-14.686,0.8588854625795
-14.6855,0.7772503844658323
-14.685,0.5943564113842495
-14.6845,0.5951413640584194
-14.684,0.5959263167325893
-14.6835,0.5959263167325893
-14.683,0.5967112694067592
-14.6825,0.5974962220809291
-14.682,0.5974962220809291
-14.6815,0.598281174755099
-14.681,0.5990661274292689
-14.6805,0.5998510801034388
-14.68,0.6006360327776086
-14.6795,0.6006360327776086
-14.679,0.8070785860842877
-14.6785,0.8314121189835542
-14.678,0.8321970716577241
-14.6775,0.8329820243318939
-14.677,0.8337669770060638
-14.6765,0.8314121189835542
-14.676,0.8259174502643649
-14.6755,0.6131952755643267
-14.675,0.5951413640584194
-14.6745,0.5974962220809291
-14.674,0.5967112694067592
-14.6735,0.598281174755099
-14.673,0.598281174755099
-14.6725,0.598281174755099
-14.672,0.6069156541709677
-14.6715,0.8596704152536699
-14.671,0.865950036647029
-14.6705,0.8698748000178784
-14.67,0.8690898473437085
-14.6695,0.8690898473437085
-14.669,0.8643801312986892
-14.6685,0.6029908908001183
-14.668,0.5943564113842495
-14.6675,0.5951413640584194
-14.667,0.5967112694067592
-14.6665,0.5959263167325893
-14.666,0.5967112694067592
-14.6655,0.5967112694067592
-14.665,0.5974962220809291
-14.6645,0.598281174755099
-14.664,0.5990661274292689
-14.6635,0.5990661274292689
-14.663,0.5998510801034388
-14.6625,0.7340779873864887
-14.662,0.8424014564219324
-14.6615,0.8416165037477626
-14.661,0.8424014564219324
-14.6605,0.8431864090961023
-14.66,0.8439713617702722
-14.6595,0.8376917403769132
-14.659,0.6940454010038246
-14.6585,0.5951413640584194
-14.658,0.5959263167325893
-14.6575,0.5951413640584194
-14.657,0.5967112694067592
-14.6565,0.5974962220809291
-14.656,0.5974962220809291
-14.6555,0.598281174755099
-14.655,0.7929494379492299
-14.6545,0.8706597526920483
-14.654,0.8737995633887278
-14.6535,0.8753694687370676
-14.653,0.8730146107145579
-14.6525,0.8714447053662182
-14.652,0.691690542981315
-14.6515,0.5927865060359098
-14.651,0.5943564113842495
-14.6505,0.5943564113842495
-14.65,0.5943564113842495
-14.6495,0.5959263167325893
-14.649,0.5959263167325893
-14.6485,0.5959263167325893
-14.648,0.5967112694067592
-14.6475,0.5974962220809291
-14.647,0.598281174755099
-14.6465,0.598281174755099
-14.646,0.6540128146211607
-14.6455,0.8329820243318939
-14.645,0.8321970716577241
-14.6445,0.8314121189835542
-14.644,0.8321970716577241
-14.6435,0.8314121189835542
-14.643,0.8274873556127047
-14.6425,0.7646911416791141
-14.642,0.5927865060359098
-14.6415,0.5943564113842495
-14.641,0.5951413640584194
-14.6405,0.5967112694067592
-14.64,0.5959263167325893
-14.6395,0.5974962220809291
-14.639,0.5974962220809291
-14.6385,0.6979701643746741
-14.638,0.8502509831636313
-14.6375,0.8573155572311603
-14.637,0.8588854625795
-14.6365,0.8573155572311603
-14.636,0.8557456518828205
-14.6355,0.7678309523757937
-14.635,0.5920015533617399
-14.6345,0.5927865060359098
-14.634,0.5951413640584194
-14.6335,0.5951413640584194
-14.633,0.5951413640584194
-14.6325,0.5959263167325893
-14.632,0.5967112694067592
-14.6315,0.5967112694067592
-14.631,0.5974962220809291
-14.6305,0.5974962220809291
-14.63,0.598281174755099
-14.6295,0.5998510801034388
-14.629,0.8007989646909287
-14.6285,0.8259174502643649
-14.628,0.825132497590195
-14.6275,0.825132497590195
-14.627,0.8274873556127047
-14.6265,0.825132497590195
-14.626,0.8212077342193457
-14.6255,0.6084855595193075
-14.625,0.5951413640584194
-14.6245,0.5951413640584194
-14.624,0.5959263167325893
-14.6235,0.5967112694067592
-14.623,0.5974962220809291
-14.6225,0.5974962220809291
-14.622,0.6069156541709677
-14.6215,0.852605841186141
-14.621,0.8581005099053302
-14.6205,0.8620252732761795
-14.62,0.8588854625795
-14.6195,0.8596704152536699
-14.619,0.8549606992086506
-14.6185,0.6014209854517785
-14.618,0.5943564113842495
-14.6175,0.5935714587100797
-14.617,0.5951413640584194
-14.6165,0.5951413640584194
-14.616,0.5959263167325893
-14.6155,0.5959263167325893
-14.615,0.598281174755099
-14.6145,0.5974962220809291
-14.614,0.5990661274292689
-14.6135,0.5990661274292689
-14.613,0.5998510801034388
-14.6125,0.7301532240156393
-14.612,0.8282723082868746
-14.6115,0.8274873556127047
-14.611,0.8282723082868746
-14.6105,0.8282723082868746
-14.61,0.8290572609610445
-14.6095,0.8227776395676855
-14.609,0.6838410162396162
-14.6085,0.5951413640584194
-14.608,0.5951413640584194
-14.6075,0.5959263167325893
-14.607,0.5967112694067592
-14.6065,0.5974962220809291
-14.606,0.5974962220809291
-14.6055,0.598281174755099
-14.605,0.7850999112075311
-14.6045,0.8565306045569904
-14.604,0.8628102259503494
-14.6035,0.8620252732761795
-14.603,0.8604553679278398
-14.6025,0.8596704152536699
-14.602,0.6830560635654463
-14.6015,0.5935714587100797
-14.601,0.5935714587100797
-14.6005,0.5951413640584194
-14.6,0.5951413640584194
-14.5995,0.5959263167325893
-14.599,0.5967112694067592
-14.5985,0.5974962220809291
-14.598,0.5974962220809291
-14.5975,0.598281174755099
-14.597,0.5990661274292689
-14.5965,0.5990661274292689
-14.596,0.6524429092728209
-14.5955,0.8290572609610445
-14.595,0.8282723082868746
-14.5945,0.8274873556127047
-14.594,0.8282723082868746
-14.5935,0.8290572609610445
-14.593,0.8259174502643649
-14.5925,0.7623362836566044
-14.592,0.5943564113842495
-14.5915,0.5951413640584194
-14.591,0.5959263167325893
-14.5905,0.5959263167325893
-14.59,0.5974962220809291
-14.5895,0.598281174755099
-14.589,0.598281174755099
-14.5885,0.6956153063521644
-14.588,0.8541757465344807
-14.5875,0.8620252732761795
-14.587,0.8612403206020096
-14.5865,0.8604553679278398
-14.586,0.8596704152536699
-14.5855,0.7756804791174925
-14.585,0.5935714587100797
-14.5845,0.5935714587100797
-14.584,0.5951413640584194
-14.5835,0.5951413640584194
-14.583,0.5951413640584194
-14.5825,0.5959263167325893
-14.582,0.5967112694067592
-14.5815,0.5974962220809291
-14.581,0.5974962220809291
-14.5805,0.598281174755099
-14.58,0.5990661274292689
-14.5795,0.5998510801034388
-14.579,0.8062936334101178
-14.5785,0.8282723082868746
-14.578,0.8298422136352144
-14.5775,0.8298422136352144
-14.577,0.8306271663093843
-14.5765,0.8274873556127047
-14.576,0.8235625922418554
-14.5755,0.6069156541709677
-14.575,0.5951413640584194
-14.5745,0.5959263167325893
-14.574,0.5959263167325893
-14.5735,0.5967112694067592
-14.573,0.5974962220809291
-14.5725,0.598281174755099
-14.572,0.6124103228901568
-14.5715,0.8541757465344807
-14.571,0.8596704152536699
-14.5705,0.8620252732761795
-14.57,0.8628102259503494
-14.5695,0.8612403206020096
-14.569,0.8565306045569904
-14.5685,0.6006360327776086
-14.568,0.5935714587100797
-14.5675,0.5951413640584194
-14.567,0.5951413640584194
-14.5665,0.5951413640584194
-14.566,0.5967112694067592
-14.5655,0.5967112694067592
-14.565,0.5974962220809291
-14.5645,0.598281174755099
-14.564,0.598281174755099
-14.5635,0.5990661274292689
-14.563,0.5998510801034388
-14.5625,0.7325080820381489
-14.562,0.8314121189835542
-14.5615,0.8298422136352144
-14.561,0.8298422136352144
-14.5605,0.8298422136352144
-14.56,0.8306271663093843
-14.5595,0.8235625922418554
-14.559,0.6838410162396162
-14.5585,0.5943564113842495
-14.558,0.5959263167325893
-14.5575,0.5967112694067592
-14.557,0.5967112694067592
-14.5565,0.5967112694067592
-14.556,0.5974962220809291
-14.5555,0.5990661274292689
-14.555,0.7843149585333612
-14.5545,0.8596704152536699
-14.554,0.8635951786245193
-14.5535,0.8628102259503494
-14.553,0.8612403206020096
-14.5525,0.8604553679278398
-14.552,0.6814861582171066
-14.5515,0.5935714587100797
-14.551,0.5943564113842495
-14.5505,0.5951413640584194
-14.55,0.5951413640584194
-14.5495,0.5959263167325893
-14.549,0.5967112694067592
-14.5485,0.5967112694067592
-14.548,0.5974962220809291
-14.5475,0.598281174755099
-14.547,0.5990661274292689
-14.5465,0.5990661274292689
-14.546,0.6571526253178401
-14.5455,0.8298422136352144
-14.545,0.8298422136352144
-14.5445,0.8282723082868746
-14.544,0.8306271663093843
-14.5435,0.8306271663093843
-14.543,0.8267024029385348
-14.5425,0.7615513309824345
-14.542,0.5951413640584194
-14.5415,0.5943564113842495
-14.541,0.5951413640584194
-14.5405,0.5967112694067592
-14.54,0.5967112694067592
-14.5395,0.5974962220809291
-14.539,0.5974962220809291
-14.5385,0.7034648330938632
-14.538,0.8557456518828205
-14.5375,0.8612403206020096
-14.537,0.8620252732761795
-14.5365,0.8628102259503494
-14.536,0.8612403206020096
-14.5355,0.7725406684208129
-14.535,0.5927865060359098
-14.5345,0.5935714587100797
-14.534,0.5951413640584194
-14.5335,0.5951413640584194
-14.533,0.5959263167325893
-14.5325,0.5967112694067592
-14.532,0.5967112694067592
-14.5315,0.5974962220809291
-14.531,0.598281174755099
-14.5305,0.5990661274292689
-14.53,0.5998510801034388
-14.5295,0.5998510801034388
-14.529,0.8110033494551372
-14.5285,0.8298422136352144
-14.528,0.8298422136352144
-14.5275,0.8306271663093843
-14.527,0.8314121189835542
-14.5265,0.8282723082868746
-14.526,0.8227776395676855
-14.5255,0.6077006068451376
-14.525,0.5943564113842495
-14.5245,0.5959263167325893
-14.524,0.5959263167325893
-14.5235,0.5974962220809291
-14.523,0.5974962220809291
-14.5225,0.598281174755099
-14.522,0.6233996603285352
-14.5215,0.852605841186141
-14.521,0.8604553679278398
-14.5205,0.8628102259503494
-14.52,0.8635951786245193
-14.5195,0.8628102259503494
-14.519,0.8502509831636313
-14.5185,0.5967112694067592
-14.518,0.5935714587100797
-14.5175,0.5943564113842495
-14.517,0.5951413640584194
-14.5165,0.5959263167325893
-14.516,0.5967112694067592
-14.5155,0.5967112694067592
-14.515,0.5974962220809291
-14.5145,0.598281174755099
-14.514,0.5990661274292689
-14.5135,0.5990661274292689
-14.513,0.5998510801034388
-14.5125,0.7325080820381489
-14.512,0.8314121189835542
-14.5115,0.8306271663093843
-14.511,0.8306271663093843
-14.5105,0.8298422136352144
-14.51,0.8298422136352144
-14.5095,0.8235625922418554
-14.509,0.6814861582171066
-14.5085,0.5943564113842495
-14.508,0.5951413640584194
-14.5075,0.5959263167325893
-14.507,0.5959263167325893
-14.5065,0.5974962220809291
-14.506,0.5974962220809291
-14.5055,0.598281174755099
-14.505,0.7898096272525503
-14.5045,0.8604553679278398
-14.504,0.8643801312986892
-14.5035,0.8635951786245193
-14.503,0.8628102259503494
-14.5025,0.8612403206020096
-14.502,0.6822711108912765
-14.5015,0.5935714587100797
-14.501,0.5943564113842495
-14.5005,0.5951413640584194
-14.5,0.5959263167325893
-14.4995,0.5959263167325893
-14.499,0.5967112694067592
-14.4985,0.5974962220809291
-14.498,0.5974962220809291
-14.4975,0.598281174755099
-14.497,0.598281174755099
-14.4965,0.5998510801034388
-14.496,0.6610773886886896
-14.4955,0.8306271663093843
-14.495,0.8298422136352144
-14.4945,0.8314121189835542
-14.494,0.8314121189835542
-14.4935,0.8314121189835542
-14.493,0.8282723082868746
-14.4925,0.7607663783082647
-14.492,0.5943564113842495
-14.4915,0.5959263167325893
-14.491,0.5951413640584194
-14.4905,0.5967112694067592
-14.49,0.5967112694067592
-14.4895,0.598281174755099
-14.489,0.598281174755099
-14.4885,0.7018949277455235
-14.488,0.8581005099053302
-14.4875,0.8628102259503494
-14.487,0.8643801312986892
-14.4865,0.8628102259503494
-14.486,0.8620252732761795
-14.4855,0.7678309523757937
-14.485,0.5927865060359098
-14.4845,0.5935714587100797
-14.484,0.5943564113842495
-14.4835,0.5959263167325893
-14.483,0.5959263167325893
-14.4825,0.5967112694067592
-14.482,0.5959263167325893
-14.4815,0.5974962220809291
-14.481,0.598281174755099
-14.4805,0.598281174755099
-14.48,0.5990661274292689
-14.4795,0.5990661274292689
-14.479,0.812573254803477
-14.4785,0.8321970716577241
-14.478,0.8314121189835542
-14.4775,0.8321970716577241
-14.477,0.8321970716577241
-14.4765,0.8306271663093843
-14.476,0.8235625922418554
-14.4755,0.6084855595193075
-14.475,0.5943564113842495
-14.4745,0.5959263167325893
-14.474,0.5967112694067592
-14.4735,0.5974962220809291
-14.473,0.5974962220809291
-14.4725,0.598281174755099
-14.472,0.6186899442835159
-14.4715,0.8549606992086506
-14.471,0.8628102259503494
-14.4705,0.8643801312986892
-14.47,0.8643801312986892
-14.4695,0.8635951786245193
-14.469,0.8518208885119711
-14.4685,0.5951413640584194
-14.468,0.5935714587100797
-14.4675,0.5935714587100797
-14.467,0.5951413640584194
-14.4665,0.5959263167325893
-14.466,0.5967112694067592
-14.4655,0.5967112694067592
-14.465,0.5974962220809291
-14.4645,0.5974962220809291
-14.464,0.598281174755099
-14.4635,0.598281174755099
-14.463,0.5998510801034388
-14.4625,0.7380027507573381
-14.462,0.8321970716577241
-14.4615,0.8314121189835542
-14.461,0.8314121189835542
-14.4605,0.8321970716577241
-14.46,0.8314121189835542
-14.4595,0.8267024029385348
-14.459,0.6791313001945969
-14.4585,0.5951413640584194
-14.458,0.5943564113842495
-14.4575,0.5967112694067592
-14.457,0.5967112694067592
-14.4565,0.5967112694067592
-14.456,0.5974962220809291
-14.4555,0.598281174755099
-14.455,0.79216448527506
-14.4545,0.8604553679278398
-14.454,0.8643801312986892
-14.4535,0.8620252732761795
-14.453,0.8635951786245193
-14.4525,0.8620252732761795
-14.452,0.6759914894979173
-14.4515,0.5920015533617399
-14.451,0.5935714587100797
-14.4505,0.5951413640584194
-14.45,0.5943564113842495
-14.4495,0.5951413640584194
-14.449,0.5967112694067592
-14.4485,0.5974962220809291
-14.448,0.5974962220809291
-14.4475,0.598281174755099
-14.447,0.5990661274292689
-14.4465,0.5990661274292689
-14.446,0.6665720574078787
-14.4455,0.8314121189835542
-14.445,0.8306271663093843
-14.4445,0.8321970716577241
-14.444,0.8314121189835542
-14.4435,0.8314121189835542
-14.443,0.8282723082868746
-14.4425,0.752131898892396
-14.442,0.5943564113842495
-14.4415,0.5951413640584194
-14.441,0.5959263167325893
-14.4405,0.5959263167325893
-14.44,0.5967112694067592
-14.4395,0.5967112694067592
-14.439,0.598281174755099
-14.4385,0.7089595018130525
-14.438,0.8588854625795
-14.4375,0.8651650839728591
-14.437,0.8643801312986892
-14.4365,0.8643801312986892
-14.436,0.8620252732761795
-14.4355,0.759196472959925
-14.435,0.5920015533617399
-14.4345,0.5935714587100797
-14.434,0.5927865060359098
-14.4335,0.5943564113842495
-14.433,0.5959263167325893
-14.4325,0.5959263167325893
-14.432,0.5967112694067592
-14.4315,0.5967112694067592
-14.431,0.5974962220809291
-14.4305,0.598281174755099
-14.43,0.5990661274292689
-14.4295,0.6006360327776086
-14.429,0.8172829708484962
-14.4285,0.8314121189835542
-14.428,0.8306271663093843
-14.4275,0.8306271663093843
-14.427,0.8329820243318939
-14.4265,0.8282723082868746
-14.426,0.8243475449160251
-14.4255,0.5998510801034388
-14.425,0.5951413640584194
-14.4245,0.5943564113842495
-14.424,0.5959263167325893
-14.4235,0.5967112694067592
-14.423,0.5974962220809291
-14.4225,0.5974962220809291
-14.422,0.624969565676875
-14.4215,0.852605841186141
-14.421,0.8635951786245193
-14.4205,0.8635951786245193
-14.42,0.8635951786245193
-14.4195,0.8612403206020096
-14.419,0.8510359358378012
-14.4185,0.5943564113842495
-14.418,0.5927865060359098
-14.4175,0.5943564113842495
-14.417,0.5951413640584194
-14.4165,0.5951413640584194
-14.416,0.5951413640584194
-14.4155,0.5959263167325893
-14.415,0.5967112694067592
-14.4145,0.5974962220809291
-14.414,0.598281174755099
-14.4135,0.598281174755099
-14.413,0.5990661274292689
-14.4125,0.7427124668023574
-14.412,0.8290572609610445
-14.4115,0.8298422136352144
-14.411,0.8298422136352144
-14.4105,0.8298422136352144
-14.41,0.8306271663093843
-14.4095,0.8243475449160251
-14.409,0.6704968207787282
-14.4085,0.5951413640584194
-14.408,0.5943564113842495
-14.4075,0.5959263167325893
-14.407,0.5959263167325893
-14.4065,0.5974962220809291
-14.406,0.5974962220809291
-14.4055,0.5974962220809291
-14.405,0.798444106668419
-14.4045,0.8588854625795
-14.404,0.8620252732761795
-14.4035,0.8635951786245193
-14.403,0.8612403206020096
-14.4025,0.8596704152536699
-14.402,0.6697118681045583
-14.4015,0.5935714587100797
-14.401,0.5935714587100797
-14.4005,0.5943564113842495
-14.4,0.5951413640584194
-14.3995,0.5951413640584194
-14.399,0.5967112694067592
-14.3985,0.5967112694067592
-14.398,0.598281174755099
-14.3975,0.598281174755099
-14.397,0.598281174755099
-14.3965,0.5990661274292689
-14.396,0.6650021520595391
-14.3955,0.8298422136352144
-14.395,0.8290572609610445
-14.3945,0.8306271663093843
-14.394,0.8298422136352144
-14.3935,0.8306271663093843
-14.393,0.8259174502643649
-14.3925,0.7489920881957165
-14.392,0.5951413640584194
-14.3915,0.5943564113842495
-14.391,0.5959263167325893
-14.3905,0.5959263167325893
-14.39,0.5967112694067592
-14.3895,0.5967112694067592
-14.389,0.598281174755099
-14.3885,0.7144541705322416
-14.388,0.8565306045569904
-14.3875,0.8628102259503494
-14.387,0.8628102259503494
-14.3865,0.8620252732761795
-14.386,0.8596704152536699
-14.3855,0.7615513309824345
-14.385,0.5920015533617399
-14.3845,0.5927865060359098
-14.384,0.5943564113842495
-14.3835,0.5951413640584194
-14.383,0.5951413640584194
-14.3825,0.5959263167325893
-14.382,0.5967112694067592
-14.3815,0.5967112694067592
-14.381,0.598281174755099
-14.3805,0.598281174755099
-14.38,0.5990661274292689
-14.3795,0.6006360327776086
-14.379,0.8196378288710059
-14.3785,0.8314121189835542
-14.378,0.8306271663093843
-14.3775,0.8298422136352144
-14.377,0.8314121189835542
-14.3765,0.8290572609610445
-14.376,0.8212077342193457
-14.3755,0.5974962220809291
-14.375,0.5935714587100797
-14.3745,0.5951413640584194
-14.374,0.5959263167325893
-14.3735,0.5967112694067592
-14.373,0.5974962220809291
-14.3725,0.5974962220809291
-14.372,0.6304642343960641
-14.3715,0.8533907938603109
-14.371,0.8604553679278398
-14.3705,0.8628102259503494
-14.37,0.8620252732761795
-14.3695,0.8604553679278398
-14.369,0.8463262197927819
-14.3685,0.5935714587100797
-14.368,0.5927865060359098
-14.3675,0.5951413640584194
-14.367,0.5951413640584194
-14.3665,0.5951413640584194
-14.366,0.5959263167325893
-14.3655,0.5967112694067592
-14.365,0.5967112694067592
-14.3645,0.598281174755099
-14.364,0.598281174755099
-14.3635,0.5990661274292689
-14.363,0.5990661274292689
-14.3625,0.7434974194765273
-14.362,0.8290572609610445
-14.3615,0.8282723082868746
-14.361,0.8306271663093843
-14.3605,0.8298422136352144
-14.36,0.8298422136352144
-14.3595,0.8235625922418554
-14.359,0.6728516788012379
-14.3585,0.5935714587100797
-14.358,0.5951413640584194
-14.3575,0.5959263167325893
-14.357,0.5967112694067592
-14.3565,0.5967112694067592
-14.356,0.5974962220809291
-14.3555,0.598281174755099
-14.355,0.7976591539942491
-14.3545,0.8588854625795
-14.354,0.8628102259503494
-14.3535,0.8628102259503494
-14.353,0.8612403206020096
-14.3525,0.8596704152536699
-14.352,0.672066726127068
-14.3515,0.5935714587100797
-14.351,0.5935714587100797
-14.3505,0.5943564113842495
-14.35,0.5943564113842495
-14.3495,0.5959263167325893
-14.349,0.5967112694067592
-14.3485,0.5974962220809291
-14.348,0.5974962220809291
-14.3475,0.598281174755099
-14.347,0.5990661274292689
-14.3465,0.5990661274292689
-14.346,0.6681419627562185
-14.3455,0.8282723082868746
-14.345,0.8298422136352144
-14.3445,0.8298422136352144
-14.344,0.8298422136352144
-14.3435,0.8321970716577241
-14.343,0.8259174502643649
-14.3425,0.7466372301732068
-14.342,0.5935714587100797
-14.3415,0.5959263167325893
-14.341,0.5959263167325893
-14.3405,0.5959263167325893
-14.34,0.5967112694067592
-14.3395,0.5974962220809291
-14.339,0.598281174755099
-14.3385,0.7136692178580717
-14.338,0.8565306045569904
-14.3375,0.8628102259503494
-14.337,0.8635951786245193
-14.3365,0.8628102259503494
-14.336,0.8612403206020096
-14.3355,0.7568416149374153
-14.335,0.5927865060359098
-14.3345,0.5943564113842495
-14.334,0.5943564113842495
-14.3335,0.5951413640584194
-14.333,0.5959263167325893
-14.3325,0.5959263167325893
-14.332,0.5974962220809291
-14.3315,0.5974962220809291
-14.331,0.5990661274292689
-14.3305,0.598281174755099
-14.33,0.5990661274292689
-14.3295,0.6006360327776086
-14.329,0.8219926868935156
-14.3285,0.8290572609610445
-14.328,0.8274873556127047
-14.3275,0.8298422136352144
-14.327,0.8290572609610445
-14.3265,0.8267024029385348
-14.326,0.8196378288710059
-14.3255,0.5974962220809291
-14.325,0.5943564113842495
-14.3245,0.5959263167325893
-14.324,0.5959263167325893
-14.3235,0.5967112694067592
-14.323,0.5974962220809291
-14.3225,0.598281174755099
-14.322,0.6320341397444039
-14.3215,0.8541757465344807
-14.321,0.8604553679278398
-14.3205,0.8628102259503494
-14.32,0.8635951786245193
-14.3195,0.8628102259503494
-14.319,0.8408315510735928
-14.3185,0.5927865060359098
-14.318,0.5935714587100797
-14.3175,0.5935714587100797
-14.317,0.5951413640584194
-14.3165,0.5951413640584194
-14.316,0.5959263167325893
-14.3155,0.5967112694067592
-14.315,0.5974962220809291
-14.3145,0.5974962220809291
-14.314,0.5990661274292689
-14.3135,0.5990661274292689
-14.313,0.5998510801034388
-14.3125,0.745067324824867
-14.312,0.8290572609610445
-14.3115,0.8298422136352144
-14.311,0.8290572609610445
-14.3105,0.8314121189835542
-14.31,0.8314121189835542
-14.3095,0.8243475449160251
-14.309,0.6681419627562185
-14.3085,0.5943564113842495
-14.308,0.5951413640584194
-14.3075,0.5959263167325893
-14.307,0.5967112694067592
-14.3065,0.5967112694067592
-14.306,0.598281174755099
-14.3055,0.598281174755099
-14.305,0.7992290593425889
-14.3045,0.8581005099053302
-14.304,0.8635951786245193
-14.3035,0.8628102259503494
-14.303,0.8620252732761795
-14.3025,0.8596704152536699
-14.302,0.6697118681045583
-14.3015,0.5927865060359098
-14.301,0.5943564113842495
-14.3005,0.5943564113842495
-14.3,0.5951413640584194
-14.2995,0.5959263167325893
-14.299,0.5959263167325893
-14.2985,0.5974962220809291
-14.298,0.598281174755099
-14.2975,0.598281174755099
-14.297,0.5990661274292689
-14.2965,0.5998510801034388
-14.296,0.672066726127068
-14.2955,0.8290572609610445
-14.295,0.8314121189835542
-14.2945,0.8298422136352144
-14.294,0.8306271663093843
-14.2935,0.8306271663093843
-14.293,0.8274873556127047
-14.2925,0.7442823721506971
-14.292,0.5943564113842495
-14.2915,0.5959263167325893
-14.291,0.5951413640584194
-14.2905,0.5951413640584194
-14.29,0.5967112694067592
-14.2895,0.5967112694067592
-14.289,0.598281174755099
-14.2885,0.7199488392514308
-14.288,0.8549606992086506
-14.2875,0.8628102259503494
-14.287,0.8643801312986892
-14.2865,0.8612403206020096
-14.286,0.8612403206020096
-14.2855,0.7489920881957165
-14.285,0.5935714587100797
-14.2845,0.5935714587100797
-14.284,0.5943564113842495
-14.2835,0.5951413640584194
-14.283,0.5959263167325893
-14.2825,0.5959263167325893
-14.282,0.5967112694067592
-14.2815,0.5974962220809291
-14.281,0.598281174755099
-14.2805,0.5990661274292689
-14.28,0.5998510801034388
-14.2795,0.6006360327776086
-14.279,0.8235625922418554
-14.2785,0.8298422136352144
-14.278,0.8314121189835542
-14.2775,0.8306271663093843
-14.277,0.8306271663093843
-14.2765,0.8282723082868746
-14.276,0.8212077342193457
-14.2755,0.5974962220809291
-14.275,0.5951413640584194
-14.2745,0.5951413640584194
-14.274,0.5959263167325893
-14.2735,0.5967112694067592
-14.273,0.5974962220809291
-14.2725,0.5974962220809291
-14.272,0.6375288084635932
-14.2715,0.8533907938603109
-14.271,0.8612403206020096
-14.2705,0.8628102259503494
-14.27,0.8628102259503494
-14.2695,0.8620252732761795
-14.269,0.8424014564219324
-14.2685,0.5935714587100797
-14.268,0.5935714587100797
-14.2675,0.5943564113842495
-14.267,0.5951413640584194
-14.2665,0.5959263167325893
-14.266,0.5959263167325893
-14.2655,0.5967112694067592
-14.265,0.5974962220809291
-14.2645,0.598281174755099
-14.264,0.598281174755099
-14.2635,0.5990661274292689
-14.263,0.5990661274292689
-14.2625,0.7482071355215466
-14.262,0.8298422136352144
-14.2615,0.8290572609610445
-14.261,0.8306271663093843
-14.2605,0.8306271663093843
-14.26,0.8282723082868746
-14.2595,0.8235625922418554
-14.259,0.6681419627562185
-14.2585,0.5927865060359098
-14.258,0.5951413640584194
-14.2575,0.5951413640584194
-14.257,0.5967112694067592
-14.2565,0.5974962220809291
-14.256,0.5974962220809291
-14.2555,0.598281174755099
-14.255,0.8078635387584576
-14.2545,0.8596704152536699
-14.254,0.8628102259503494
-14.2535,0.8628102259503494
-14.253,0.8628102259503494
-14.2525,0.8612403206020096
-14.252,0.6657871047337089
-14.2515,0.5927865060359098
-14.251,0.5935714587100797
-14.2505,0.5943564113842495
-14.25,0.5951413640584194
-14.2495,0.5959263167325893
-14.249,0.5959263167325893
-14.2485,0.5974962220809291
-14.248,0.5967112694067592
-14.2475,0.598281174755099
-14.247,0.598281174755099
-14.2465,0.5990661274292689
-14.246,0.6736366314754078
-14.2455,0.8298422136352144
-14.245,0.8306271663093843
-14.2445,0.8298422136352144
-14.244,0.8314121189835542
-14.2435,0.8306271663093843
-14.243,0.825132497590195
-14.2425,0.7434974194765273
-14.242,0.5943564113842495
-14.2415,0.5951413640584194
-14.241,0.5959263167325893
-14.2405,0.5959263167325893
-14.24,0.5967112694067592
-14.2395,0.5974962220809291
-14.239,0.598281174755099
-14.2385,0.7199488392514308
-14.238,0.8557456518828205
-14.2375,0.8628102259503494
-14.237,0.8620252732761795
-14.2365,0.8628102259503494
-14.236,0.8612403206020096
-14.2355,0.7505619935440562
-14.235,0.5935714587100797
-14.2345,0.5943564113842495
-14.234,0.5943564113842495
-14.2335,0.5951413640584194
-14.233,0.5959263167325893
-14.2325,0.5959263167325893
-14.232,0.5967112694067592
-14.2315,0.5974962220809291
-14.231,0.5974962220809291
-14.2305,0.5990661274292689
-14.23,0.5990661274292689
-14.2295,0.6014209854517785
-14.229,0.8259174502643649
-14.2285,0.8298422136352144
-14.228,0.8306271663093843
-14.2275,0.8290572609610445
-14.227,0.8314121189835542
-14.2265,0.8274873556127047
-14.226,0.8157130655001565
-14.2255,0.5959263167325893
-14.225,0.5951413640584194
-14.2245,0.5967112694067592
-14.224,0.5951413640584194
-14.2235,0.5974962220809291
-14.223,0.5974962220809291
-14.2225,0.598281174755099
-14.222,0.6336040450927437
-14.2215,0.8549606992086506
-14.221,0.8612403206020096
-14.2205,0.8643801312986892
-14.22,0.8628102259503494
-14.2195,0.8612403206020096
-14.219,0.8408315510735928
-14.2185,0.5927865060359098
-14.218,0.5927865060359098
-14.2175,0.5935714587100797
-14.217,0.5943564113842495
-14.2165,0.5951413640584194
-14.216,0.5959263167325893
-14.2155,0.5959263167325893
-14.215,0.5974962220809291
-14.2145,0.5974962220809291
-14.214,0.598281174755099
-14.2135,0.5990661274292689
-14.213,0.598281174755099
-14.2125,0.7513469462182261
-14.212,0.8282723082868746
-14.2115,0.8298422136352144
-14.211,0.8290572609610445
-14.2105,0.8314121189835542
-14.21,0.8290572609610445
-14.2095,0.8243475449160251
-14.209,0.6634322467111993
-14.2085,0.5959263167325893
-14.208,0.5943564113842495
-14.2075,0.5959263167325893
-14.207,0.5967112694067592
-14.2065,0.5974962220809291
-14.206,0.598281174755099
-14.2055,0.598281174755099
-14.205,0.8055086807359481
-14.2045,0.8596704152536699
-14.204,0.8620252732761795
-14.2035,0.8612403206020096
-14.203,0.8612403206020096
-14.2025,0.8596704152536699
-14.202,0.6563676726436702
-14.2015,0.5935714587100797
-14.201,0.5935714587100797
-14.2005,0.5943564113842495
-14.2,0.5959263167325893
-14.1995,0.5951413640584194
-14.199,0.5967112694067592
-14.1985,0.5967112694067592
-14.198,0.5974962220809291
-14.1975,0.598281174755099
-14.197,0.5990661274292689
-14.1965,0.5990661274292689
-14.196,0.6736366314754078
-14.1955,0.8290572609610445
-14.195,0.8306271663093843
-14.1945,0.8306271663093843
-14.194,0.8306271663093843
-14.1935,0.8306271663093843
-14.193,0.8259174502643649
-14.1925,0.7411425614540176
-14.192,0.5951413640584194
-14.1915,0.5943564113842495
-14.191,0.5967112694067592
-14.1905,0.5959263167325893
-14.19,0.5967112694067592
-14.1895,0.598281174755099
-14.189,0.5974962220809291
-14.1885,0.7207337919256007
-14.188,0.8557456518828205
-14.1875,0.8628102259503494
-14.187,0.8628102259503494
-14.1865,0.8628102259503494
-14.186,0.8612403206020096
-14.1855,0.7489920881957165
-14.185,0.5927865060359098
-14.1845,0.5935714587100797
-14.184,0.5943564113842495
-14.1835,0.5951413640584194
-14.183,0.5959263167325893
-14.1825,0.5967112694067592
-14.182,0.5974962220809291
-14.1815,0.5974962220809291
-14.181,0.598281174755099
-14.1805,0.598281174755099
-14.18,0.5990661274292689
-14.1795,0.6029908908001183
-14.179,0.8290572609610445
-14.1785,0.8306271663093843
-14.178,0.8306271663093843
-14.1775,0.8314121189835542
-14.177,0.8329820243318939
-14.1765,0.8282723082868746
-14.176,0.8157130655001565
-14.1755,0.5967112694067592
-14.175,0.5951413640584194
-14.1745,0.5951413640584194
-14.174,0.5967112694067592
-14.1735,0.5967112694067592
-14.173,0.5967112694067592
-14.1725,0.598281174755099
-14.172,0.6367438557894233
-14.1715,0.8557456518828205
-14.171,0.8620252732761795
-14.1705,0.8643801312986892
-14.17,0.8643801312986892
-14.1695,0.8620252732761795
-14.169,0.8369067877027433
-14.1685,0.5927865060359098
-14.168,0.5935714587100797
-14.1675,0.5935714587100797
-14.167,0.5943564113842495
-14.1665,0.5951413640584194
-14.166,0.5959263167325893
-14.1655,0.5967112694067592
-14.165,0.5974962220809291
-14.1645,0.598281174755099
-14.164,0.598281174755099
-14.1635,0.5990661274292689
-14.163,0.5998510801034388
-14.1625,0.7552717095890755
-14.162,0.8314121189835542
-14.1615,0.8321970716577241
-14.161,0.8306271663093843
-14.1605,0.8329820243318939
-14.16,0.8306271663093843
-14.1595,0.825132497590195
-14.159,0.6657871047337089
-14.1585,0.5943564113842495
-14.158,0.5959263167325893
-14.1575,0.5951413640584194
-14.157,0.5967112694067592
-14.1565,0.5967112694067592
-14.156,0.5974962220809291
-14.1555,0.598281174755099
-14.155,0.8078635387584576
-14.1545,0.8596704152536699
-14.154,0.8643801312986892
-14.1535,0.8651650839728591
-14.153,0.8635951786245193
-14.1525,0.8620252732761795
-14.152,0.6602924360145197
-14.1515,0.5927865060359098
-14.151,0.5943564113842495
-14.1505,0.5951413640584194
-14.15,0.5951413640584194
-14.1495,0.5959263167325893
-14.149,0.5967112694067592
-14.1485,0.5967112694067592
-14.148,0.5974962220809291
-14.1475,0.598281174755099
-14.147,0.598281174755099
-14.1465,0.5998510801034388
-14.146,0.6775613948462571
-14.1455,0.8298422136352144
-14.145,0.8314121189835542
-14.1445,0.8298422136352144
-14.144,0.8306271663093843
-14.1435,0.8321970716577241
-14.143,0.8259174502643649
-14.1425,0.7395726561056779
-14.142,0.5935714587100797
-14.1415,0.5935714587100797
-14.141,0.5959263167325893
-14.1405,0.5959263167325893
-14.14,0.5967112694067592
-14.1395,0.5974962220809291
-14.139,0.5974962220809291
-14.1385,0.7230886499481103
-14.138,0.8557456518828205
-14.1375,0.8620252732761795
-14.137,0.8635951786245193
-14.1365,0.8620252732761795
-14.136,0.8604553679278398
-14.1355,0.7434974194765273
-14.135,0.5935714587100797
-14.1345,0.5943564113842495
-14.134,0.5943564113842495
-14.1335,0.5943564113842495
-14.133,0.5967112694067592
-14.1325,0.5959263167325893
-14.132,0.5967112694067592
-14.1315,0.5974962220809291
-14.131,0.598281174755099
-14.1305,0.598281174755099
-14.13,0.5990661274292689
-14.1295,0.6037758434742881
-14.129,0.8267024029385348
-14.1285,0.8290572609610445
-14.128,0.8274873556127047
-14.1275,0.8290572609610445
-14.127,0.8282723082868746
-14.1265,0.8259174502643649
-14.126,0.8078635387584576
-14.1255,0.5974962220809291
-14.125,0.5951413640584194
-14.1245,0.5943564113842495
-14.124,0.5967112694067592
-14.1235,0.5967112694067592
-14.123,0.5974962220809291
-14.1225,0.598281174755099
-14.122,0.6477331932278015
-14.1215,0.8533907938603109
-14.121,0.8596704152536699
-14.1205,0.8620252732761795
-14.12,0.8604553679278398
-14.1195,0.8604553679278398
-14.119,0.8314121189835542
-14.1185,0.5935714587100797
-14.118,0.5927865060359098
-14.1175,0.5943564113842495
-14.117,0.5951413640584194
-14.1165,0.5951413640584194
-14.116,0.5967112694067592
-14.1155,0.5967112694067592
-14.115,0.5974962220809291
-14.1145,0.5974962220809291
-14.114,0.598281174755099
-14.1135,0.5990661274292689
-14.113,0.5998510801034388
-14.1125,0.7560566622632454
-14.112,0.8282723082868746
-14.1115,0.8290572609610445
-14.111,0.8298422136352144
-14.1105,0.8298422136352144
-14.11,0.8298422136352144
-14.1095,0.8243475449160251
-14.109,0.6602924360145197
-14.1085,0.5951413640584194
-14.108,0.5951413640584194
-14.1075,0.5959263167325893
-14.107,0.5967112694067592
-14.1065,0.5967112694067592
-14.106,0.5974962220809291
-14.1055,0.598281174755099
-14.105,0.8086484914326275
-14.1045,0.8588854625795
-14.104,0.8612403206020096
-14.1035,0.8620252732761795
-14.103,0.8612403206020096
-14.1025,0.8581005099053302
-14.102,0.6555827199695005
-14.1015,0.5943564113842495
-14.101,0.5943564113842495
-14.1005,0.5943564113842495
-14.1,0.5943564113842495
-14.0995,0.5959263167325893
-14.099,0.5959263167325893
-14.0985,0.5967112694067592
-14.098,0.5967112694067592
-14.0975,0.5990661274292689
-14.097,0.5990661274292689
-14.0965,0.598281174755099
-14.096,0.6807012055429367
-14.0955,0.8298422136352144
-14.095,0.8274873556127047
-14.0945,0.8290572609610445
-14.094,0.8298422136352144
-14.0935,0.8298422136352144
-14.093,0.8235625922418554
-14.0925,0.7356478927348284
-14.092,0.5935714587100797
-14.0915,0.5951413640584194
-14.091,0.5951413640584194
-14.0905,0.5967112694067592
-14.09,0.5967112694067592
-14.0895,0.5974962220809291
-14.089,0.5974962220809291
-14.0885,0.7277983659931296
-14.088,0.8557456518828205
-14.0875,0.8620252732761795
-14.087,0.8628102259503494
-14.0865,0.8612403206020096
-14.086,0.8612403206020096
-14.0855,0.738787703431508
-14.085,0.5935714587100797
-14.0845,0.5943564113842495
-14.084,0.5943564113842495
-14.0835,0.5951413640584194
-14.083,0.5959263167325893
-14.0825,0.5967112694067592
-14.082,0.5974962220809291
-14.0815,0.5974962220809291
-14.081,0.598281174755099
-14.0805,0.598281174755099
-14.08,0.5990661274292689
-14.0795,0.6037758434742881
-14.079,0.8267024029385348
-14.0785,0.8290572609610445
-14.078,0.8290572609610445
-14.0775,0.8282723082868746
-14.077,0.8306271663093843
-14.0765,0.8274873556127047
-14.076,0.8062936334101178
-14.0755,0.5967112694067592
-14.075,0.5935714587100797
-14.0745,0.5959263167325893
-14.074,0.5967112694067592
-14.0735,0.5967112694067592
-14.073,0.5974962220809291
-14.0725,0.598281174755099
-14.072,0.6398836664861027
-14.0715,0.8533907938603109
-14.071,0.8588854625795
-14.0705,0.8612403206020096
-14.07,0.8612403206020096
-14.0695,0.8604553679278398
-14.069,0.8298422136352144
-14.0685,0.5935714587100797
-14.068,0.5935714587100797
-14.0675,0.5943564113842495
-14.067,0.5951413640584194
-14.0665,0.5959263167325893
-14.066,0.5967112694067592
-14.0655,0.5967112694067592
-14.065,0.5974962220809291
-14.0645,0.598281174755099
-14.064,0.5990661274292689
-14.0635,0.5990661274292689
-14.063,0.5998510801034388
-14.0625,0.759196472959925
-14.062,0.8282723082868746
-14.0615,0.8290572609610445
-14.061,0.8282723082868746
-14.0605,0.8290572609610445
-14.06,0.8290572609610445
-14.0595,0.8219926868935156
-14.059,0.6587225306661799
-14.0585,0.5951413640584194
-14.058,0.5959263167325893
-14.0575,0.5959263167325893
-14.057,0.5967112694067592
-14.0565,0.5974962220809291
-14.056,0.598281174755099
-14.0555,0.5990661274292689
-14.055,0.8133582074776469
-14.0545,0.8596704152536699
-14.054,0.8643801312986892
-14.0535,0.8635951786245193
-14.053,0.8612403206020096
-14.0525,0.8604553679278398
-14.052,0.6524429092728209
-14.0515,0.5935714587100797
-14.051,0.5943564113842495
-14.0505,0.5951413640584194
-14.05,0.5959263167325893
-14.0495,0.5959263167325893
-14.049,0.5959263167325893
-14.0485,0.5974962220809291
-14.048,0.598281174755099
-14.0475,0.5990661274292689
-14.047,0.5990661274292689
-14.0465,0.5998510801034388
-14.046,0.6830560635654463
-14.0455,0.8298422136352144
-14.045,0.8298422136352144
-14.0445,0.8306271663093843
-14.044,0.8306271663093843
-14.0435,0.8306271663093843
-14.043,0.8282723082868746
-14.0425,0.7348629400606586
-14.042,0.5943564113842495
-14.0415,0.5951413640584194
-14.041,0.5959263167325893
-14.0405,0.5967112694067592
-14.04,0.5974962220809291
-14.0395,0.5974962220809291
-14.039,0.598281174755099
-14.0385,0.7340779873864887
-14.038,0.8596704152536699
-14.0375,0.865950036647029
-14.037,0.8675199419953687
-14.0365,0.8667349893211989
-14.036,0.8651650839728591
-14.0355,0.745067324824867
-14.035,0.5935714587100797
-14.0345,0.5935714587100797
-14.034,0.5943564113842495
-14.0335,0.5943564113842495
-14.033,0.5959263167325893
-14.0325,0.5959263167325893
-14.032,0.5967112694067592
-14.0315,0.5974962220809291
-14.031,0.5974962220809291
-14.0305,0.598281174755099
-14.03,0.598281174755099
-14.0295,0.6084855595193075
-14.029,0.839261645725253
-14.0285,0.8408315510735928
-14.028,0.8384766930510831
-14.0275,0.8400465983994229
-14.027,0.8416165037477626
-14.0265,0.8369067877027433
-14.026,0.8157130655001565
-14.0255,0.5959263167325893
-14.025,0.5943564113842495
-14.0245,0.5951413640584194
-14.024,0.5967112694067592
-14.0235,0.5967112694067592
-14.023,0.5967112694067592
-14.0225,0.598281174755099
-14.022,0.6477331932278015
-14.0215,0.8683048946695386
-14.021,0.8761544214112374
-14.0205,0.8769393740854073
-14.02,0.8761544214112374
-14.0195,0.8737995633887278
-14.019,0.8400465983994229
-14.0185,0.5927865060359098
-14.018,0.5920015533617399
-14.0175,0.5935714587100797
-14.017,0.5943564113842495
-14.0165,0.5943564113842495
-14.016,0.5951413640584194
-14.0155,0.5959263167325893
-14.015,0.5974962220809291
-14.0145,0.5967112694067592
-14.014,0.598281174755099
-14.0135,0.598281174755099
-14.013,0.5990661274292689
-14.0125,0.7686159050499635
-14.012,0.8408315510735928
-14.0115,0.839261645725253
-14.011,0.8408315510735928
-14.0105,0.8400465983994229
-14.01,0.8384766930510831
-14.0095,0.8321970716577241
-14.009,0.6547977672953306
-14.0085,0.5951413640584194
-14.008,0.5935714587100797
-14.0075,0.5951413640584194
-14.007,0.5951413640584194
-14.0065,0.5967112694067592
-14.006,0.5967112694067592
-14.0055,0.5974962220809291
-14.005,0.8157130655001565
-14.0045,0.8620252732761795
-14.004,0.8643801312986892
-14.0035,0.8628102259503494
-14.003,0.8612403206020096
-14.0025,0.8573155572311603
-14.002,0.6485181459019714
-14.0015,0.5927865060359098
-14.001,0.5935714587100797
-14.0005,0.5943564113842495
-14,0.5943564113842495
-13.9995,0.5959263167325893
-13.999,0.5951413640584194
-13.9985,0.5967112694067592
-13.998,0.5967112694067592
-13.9975,0.5974962220809291
-13.997,0.598281174755099
-13.9965,0.5990661274292689
-13.996,0.6822711108912765
-13.9955,0.8259174502643649
-13.995,0.825132497590195
-13.9945,0.825132497590195
-13.994,0.8267024029385348
-13.9935,0.8267024029385348
-13.993,0.8227776395676855
-13.9925,0.7301532240156393
-13.992,0.5943564113842495
-13.9915,0.5935714587100797
-13.991,0.5943564113842495
-13.9905,0.5959263167325893
-13.99,0.5959263167325893
-13.9895,0.5967112694067592
-13.989,0.5967112694067592
-13.9885,0.7309381766898092
-13.988,0.8549606992086506
-13.9875,0.8612403206020096
-13.987,0.8620252732761795
-13.9865,0.8604553679278398
-13.986,0.8588854625795
-13.9855,0.7380027507573381
-13.985,0.5935714587100797
-13.9845,0.5927865060359098
-13.984,0.5935714587100797
-13.9835,0.5943564113842495
-13.983,0.5959263167325893
-13.9825,0.5959263167325893
-13.982,0.5959263167325893
-13.9815,0.5967112694067592
-13.981,0.5974962220809291
-13.9805,0.598281174755099
-13.98,0.598281174755099
-13.9795,0.6077006068451376
-13.979,0.8298422136352144
-13.9785,0.8282723082868746
-13.978,0.8274873556127047
-13.9775,0.8282723082868746
-13.977,0.8298422136352144
-13.9765,0.8267024029385348
-13.976,0.8015839173650986
-13.9755,0.5974962220809291
-13.975,0.5935714587100797
-13.9745,0.5943564113842495
-13.974,0.5959263167325893
-13.9735,0.5959263167325893
-13.973,0.5974962220809291
-13.9725,0.5974962220809291
-13.972,0.6493030985761413
-13.9715,0.8533907938603109
-13.971,0.8604553679278398
-13.9705,0.8620252732761795
-13.97,0.8612403206020096
-13.9695,0.8596704152536699
-13.969,0.8212077342193457
-13.9685,0.5935714587100797
-13.968,0.5927865060359098
-13.9675,0.5935714587100797
-13.967,0.5943564113842495
-13.9665,0.5959263167325893
-13.966,0.5951413640584194
-13.9655,0.5967112694067592
-13.965,0.5974962220809291
-13.9645,0.5974962220809291
-13.964,0.598281174755099
-13.9635,0.598281174755099
-13.963,0.5998510801034388
-13.9625,0.7615513309824345
-13.962,0.8282723082868746
-13.9615,0.8298422136352144
-13.961,0.8282723082868746
-13.9605,0.8290572609610445
-13.96,0.8282723082868746
-13.9595,0.8235625922418554
-13.959,0.6532278619469908
-13.9585,0.5951413640584194
-13.958,0.5943564113842495
-13.9575,0.5951413640584194
-13.957,0.5959263167325893
-13.9565,0.5967112694067592
-13.956,0.5974962220809291
-13.9555,0.5974962220809291
-13.955,0.8196378288710059
-13.9545,0.8588854625795
-13.954,0.8620252732761795
-13.9535,0.8612403206020096
-13.953,0.8612403206020096
-13.9525,0.8581005099053302
-13.952,0.6469482405536318
-13.9515,0.5943564113842495
-13.951,0.5935714587100797
-13.9505,0.5943564113842495
-13.95,0.5951413640584194
-13.9495,0.5959263167325893
-13.949,0.5959263167325893
-13.9485,0.5967112694067592
-13.948,0.5974962220809291
-13.9475,0.598281174755099
-13.947,0.598281174755099
-13.9465,0.5998510801034388
-13.946,0.6846259689137861
-13.9455,0.8298422136352144
-13.945,0.8282723082868746
-13.9445,0.8290572609610445
-13.944,0.8290572609610445
-13.9435,0.8306271663093843
-13.943,0.825132497590195
-13.9425,0.7285833186672995
-13.942,0.5943564113842495
-13.9415,0.5935714587100797
-13.941,0.5951413640584194
-13.9405,0.5951413640584194
-13.94,0.5974962220809291
-13.9395,0.5967112694067592
-13.939,0.598281174755099
-13.9385,0.7356478927348284
-13.938,0.8549606992086506
-13.9375,0.8628102259503494
-13.937,0.8628102259503494
-13.9365,0.8620252732761795
-13.936,0.8612403206020096
-13.9355,0.7340779873864887
-13.935,0.5927865060359098
-13.9345,0.5935714587100797
-13.934,0.5943564113842495
-13.9335,0.5951413640584194
-13.933,0.5951413640584194
-13.9325,0.5967112694067592
-13.932,0.5967112694067592
-13.9315,0.598281174755099
-13.931,0.5974962220809291
-13.9305,0.5990661274292689
-13.93,0.5990661274292689
-13.9295,0.6108404175418171
-13.929,0.8306271663093843
-13.9285,0.8282723082868746
-13.928,0.8290572609610445
-13.9275,0.8298422136352144
-13.927,0.8314121189835542
-13.9265,0.8267024029385348
-13.926,0.8031538227134384
-13.9255,0.5974962220809291
-13.925,0.5943564113842495
-13.9245,0.5951413640584194
-13.924,0.5959263167325893
-13.9235,0.5967112694067592
-13.923,0.5974962220809291
-13.9225,0.598281174755099
-13.922,0.6524429092728209
-13.9215,0.8541757465344807
-13.921,0.8628102259503494
-13.9205,0.8635951786245193
-13.92,0.8628102259503494
-13.9195,0.8612403206020096
-13.919,0.8219926868935156
-13.9185,0.5935714587100797
-13.918,0.5935714587100797
-13.9175,0.5943564113842495
-13.917,0.5943564113842495
-13.9165,0.5951413640584194
-13.916,0.5967112694067592
-13.9155,0.5967112694067592
-13.915,0.5974962220809291
-13.9145,0.598281174755099
-13.914,0.598281174755099
-13.9135,0.5990661274292689
-13.913,0.5998510801034388
-13.9125,0.7646911416791141
-13.912,0.8298422136352144
-13.9115,0.8282723082868746
-13.911,0.8298422136352144
-13.9105,0.8306271663093843
-13.91,0.8290572609610445
-13.9095,0.8235625922418554
-13.909,0.6508730039244811
-13.9085,0.5943564113842495
-13.908,0.5959263167325893
-13.9075,0.5959263167325893
-13.907,0.5959263167325893
-13.9065,0.5967112694067592
-13.906,0.5974962220809291
-13.9055,0.598281174755099
-13.905,0.8259174502643649
-13.9045,0.8604553679278398
-13.904,0.8620252732761795
-13.9035,0.8635951786245193
-13.903,0.8612403206020096
-13.9025,0.8596704152536699
-13.902,0.6438084298569522
-13.9015,0.5935714587100797
-13.901,0.5943564113842495
-13.9005,0.5943564113842495
-13.9,0.5959263167325893
-13.8995,0.5959263167325893
-13.899,0.5967112694067592
-13.8985,0.5974962220809291
-13.898,0.5974962220809291
-13.8975,0.598281174755099
-13.897,0.5990661274292689
-13.8965,0.5998510801034388
-13.896,0.6909055903071452
-13.8955,0.8298422136352144
-13.895,0.8298422136352144
-13.8945,0.8298422136352144
-13.894,0.8306271663093843
-13.8935,0.8298422136352144
-13.893,0.825132497590195
-13.8925,0.7238736026222802
-13.892,0.5951413640584194
-13.8915,0.5959263167325893
-13.891,0.5959263167325893
-13.8905,0.5967112694067592
-13.89,0.5959263167325893
-13.8895,0.5974962220809291
-13.889,0.5974962220809291
-13.8885,0.7364328454089983
-13.888,0.8581005099053302
-13.8875,0.8628102259503494
-13.887,0.8612403206020096
-13.8865,0.8620252732761795
-13.886,0.8596704152536699
-13.8855,0.7301532240156393
-13.885,0.5943564113842495
-13.8845,0.5935714587100797
-13.884,0.5951413640584194
-13.8835,0.5951413640584194
-13.883,0.5959263167325893
-13.8825,0.5967112694067592
-13.882,0.5967112694067592
-13.8815,0.5974962220809291
-13.881,0.598281174755099
-13.8805,0.598281174755099
-13.88,0.5990661274292689
-13.8795,0.611625370215987
-13.879,0.8321970716577241
-13.8785,0.8298422136352144
-13.878,0.8306271663093843
-13.8775,0.8298422136352144
-13.877,0.8314121189835542
-13.8765,0.8274873556127047
-13.876,0.798444106668419
-13.8755,0.5974962220809291
-13.875,0.5951413640584194
-13.8745,0.5943564113842495
-13.874,0.5967112694067592
-13.8735,0.5967112694067592
-13.873,0.5967112694067592
-13.8725,0.5974962220809291
-13.872,0.6587225306661799
-13.8715,0.8557456518828205
-13.871,0.8612403206020096
-13.8705,0.8651650839728591
-13.87,0.8620252732761795
-13.8695,0.8620252732761795
-13.869,0.8196378288710059
-13.8685,0.5935714587100797
-13.868,0.5943564113842495
-13.8675,0.5943564113842495
-13.867,0.5951413640584194
-13.8665,0.5951413640584194
-13.866,0.5959263167325893
-13.8655,0.5959263167325893
-13.865,0.5974962220809291
-13.8645,0.598281174755099
-13.864,0.598281174755099
-13.8635,0.5990661274292689
-13.863,0.5990661274292689
-13.8625,0.7686159050499635
-13.862,0.8298422136352144
-13.8615,0.8306271663093843
-13.861,0.8314121189835542
-13.8605,0.8321970716577241
-13.86,0.8306271663093843
-13.8595,0.8243475449160251
-13.859,0.6500880512503112
-13.8585,0.5943564113842495
-13.858,0.5959263167325893
-13.8575,0.5951413640584194
-13.857,0.5959263167325893
-13.8565,0.5967112694067592
-13.856,0.598281174755099
-13.8555,0.598281174755099
-13.855,0.8282723082868746
-13.8545,0.8620252732761795
-13.854,0.8635951786245193
-13.8535,0.8643801312986892
-13.853,0.8635951786245193
-13.8525,0.8612403206020096
-13.852,0.6414535718344425
-13.8515,0.5927865060359098
-13.851,0.5935714587100797
-13.8505,0.5943564113842495
-13.85,0.5951413640584194
-13.8495,0.5951413640584194
-13.849,0.5959263167325893
-13.8485,0.5967112694067592
-13.848,0.5967112694067592
-13.8475,0.598281174755099
-13.847,0.598281174755099
-13.8465,0.5990661274292689
-13.846,0.6924754956554849
-13.8455,0.8329820243318939
-13.845,0.8298422136352144
-13.8445,0.8314121189835542
-13.844,0.8321970716577241
-13.8435,0.8321970716577241
-13.843,0.8267024029385348
-13.8425,0.7246585552964501
-13.842,0.5951413640584194
-13.8415,0.5943564113842495
-13.841,0.5959263167325893
-13.8405,0.5951413640584194
-13.84,0.5967112694067592
-13.8395,0.5967112694067592
-13.839,0.5974962220809291
-13.8385,0.7395726561056779
-13.838,0.8588854625795
-13.8375,0.8643801312986892
-13.837,0.8643801312986892
-13.8365,0.8635951786245193
-13.836,0.8612403206020096
-13.8355,0.7301532240156393
-13.835,0.5920015533617399
-13.8345,0.5943564113842495
-13.834,0.5943564113842495
-13.8335,0.5951413640584194
-13.833,0.5951413640584194
-13.8325,0.5959263167325893
-13.832,0.5967112694067592
-13.8315,0.5974962220809291
-13.831,0.5974962220809291
-13.8305,0.598281174755099
-13.83,0.5990661274292689
-13.8295,0.6139802282384966
-13.829,0.8329820243318939
-13.8285,0.8306271663093843
-13.828,0.8314121189835542
-13.8275,0.8329820243318939
-13.827,0.8329820243318939
-13.8265,0.8306271663093843
-13.826,0.7992290593425889
-13.8255,0.5959263167325893
-13.825,0.5943564113842495
-13.8245,0.5951413640584194
-13.824,0.5951413640584194
-13.8235,0.5959263167325893
-13.823,0.5967112694067592
-13.8225,0.5974962220809291
-13.822,0.6634322467111993
-13.8215,0.8573155572311603
-13.821,0.8635951786245193
-13.8205,0.8651650839728591
-13.82,0.8643801312986892
-13.8195,0.8628102259503494
-13.819,0.8141431601518168
-13.8185,0.5935714587100797
-13.818,0.5935714587100797
-13.8175,0.5935714587100797
-13.817,0.5951413640584194
-13.8165,0.5951413640584194
-13.816,0.5959263167325893
-13.8155,0.5967112694067592
-13.815,0.5967112694067592
-13.8145,0.5974962220809291
-13.814,0.598281174755099
-13.8135,0.5990661274292689
-13.813,0.5990661274292689
-13.8125,0.7733256210949828
-13.812,0.8306271663093843
-13.8115,0.8306271663093843
-13.811,0.8314121189835542
-13.8105,0.8314121189835542
-13.81,0.8314121189835542
-13.8095,0.825132497590195
-13.809,0.6461632878794619
-13.8085,0.5927865060359098
-13.808,0.5951413640584194
-13.8075,0.5951413640584194
-13.807,0.5959263167325893
-13.8065,0.5967112694067592
-13.806,0.5974962220809291
-13.8055,0.598281174755099
-13.805,0.8321970716577241
-13.8045,0.8604553679278398
-13.804,0.8651650839728591
-13.8035,0.8635951786245193
-13.803,0.8628102259503494
-13.8025,0.8612403206020096
-13.802,0.6367438557894233
-13.8015,0.5920015533617399
-13.801,0.5935714587100797
-13.8005,0.5943564113842495
-13.8,0.5943564113842495
-13.7995,0.5951413640584194
-13.799,0.5959263167325893
-13.7985,0.5967112694067592
-13.798,0.5967112694067592
-13.7975,0.5974962220809291
-13.797,0.598281174755099
-13.7965,0.598281174755099
-13.796,0.6956153063521644
-13.7955,0.8314121189835542
-13.795,0.8329820243318939
-13.7945,0.8314121189835542
-13.794,0.8306271663093843
-13.7935,0.8321970716577241
-13.793,0.8259174502643649
-13.7925,0.718378933903091
-13.792,0.5951413640584194
-13.7915,0.5927865060359098
-13.791,0.5959263167325893
-13.7905,0.5959263167325893
-13.79,0.5959263167325893
-13.7895,0.5967112694067592
-13.789,0.5974962220809291
-13.7885,0.7474221828473767
-13.788,0.8565306045569904
-13.7875,0.8643801312986892
-13.787,0.8628102259503494
-13.7865,0.8612403206020096
-13.786,0.8612403206020096
-13.7855,0.7230886499481103
-13.785,0.5927865060359098
-13.7845,0.5920015533617399
-13.784,0.5935714587100797
-13.7835,0.5951413640584194
-13.783,0.5951413640584194
-13.7825,0.5959263167325893
-13.782,0.5967112694067592
-13.7815,0.5967112694067592
-13.781,0.5974962220809291
-13.7805,0.598281174755099
-13.78,0.598281174755099
-13.7795,0.6186899442835159
-13.779,0.8314121189835542
-13.7785,0.8298422136352144
-13.778,0.8298422136352144
-13.7775,0.8290572609610445
-13.777,0.8306271663093843
-13.7765,0.8267024029385348
-13.776,0.7960892486459095
-13.7755,0.5951413640584194
-13.775,0.5935714587100797
-13.7745,0.5943564113842495
-13.774,0.5951413640584194
-13.7735,0.5959263167325893
-13.773,0.5967112694067592
-13.7725,0.5967112694067592
-13.772,0.6634322467111993
-13.7715,0.8549606992086506
-13.771,0.8612403206020096
-13.7705,0.8628102259503494
-13.77,0.8628102259503494
-13.7695,0.8612403206020096
-13.769,0.8110033494551372
-13.7685,0.5920015533617399
-13.768,0.5927865060359098
-13.7675,0.5935714587100797
-13.767,0.5935714587100797
-13.7665,0.5943564113842495
-13.766,0.5959263167325893
-13.7655,0.5959263167325893
-13.765,0.5974962220809291
-13.7645,0.5967112694067592
-13.764,0.598281174755099
-13.7635,0.5974962220809291
-13.763,0.5990661274292689
-13.7625,0.7733256210949828
-13.762,0.8298422136352144
-13.7615,0.8290572609610445
-13.761,0.8298422136352144
-13.7605,0.8306271663093843
-13.76,0.8290572609610445
-13.7595,0.8243475449160251
-13.759,0.6422385245086124
-13.7585,0.5935714587100797
-13.758,0.5943564113842495
-13.7575,0.5951413640584194
-13.757,0.5967112694067592
-13.7565,0.5967112694067592
-13.756,0.5974962220809291
-13.7555,0.5974962220809291
-13.755,0.8306271663093843
-13.7545,0.8604553679278398
-13.754,0.8620252732761795
-13.7535,0.8628102259503494
-13.753,0.8620252732761795
-13.7525,0.8588854625795
-13.752,0.6343889977669136
-13.7515,0.5935714587100797
-13.751,0.5935714587100797
-13.7505,0.5943564113842495
-13.75,0.5959263167325893
-13.7495,0.5959263167325893
-13.749,0.5967112694067592
-13.7485,0.5967112694067592
-13.748,0.5974962220809291
-13.7475,0.5974962220809291
-13.747,0.598281174755099
-13.7465,0.5990661274292689
-13.746,0.6971852117005042
-13.7455,0.8298422136352144
-13.745,0.8290572609610445
-13.7445,0.8290572609610445
-13.744,0.8306271663093843
-13.7435,0.8298422136352144
-13.743,0.825132497590195
-13.7425,0.718378933903091
-13.742,0.5951413640584194
-13.7415,0.5951413640584194
-13.741,0.5951413640584194
-13.7405,0.5959263167325893
-13.74,0.5959263167325893
-13.7395,0.5974962220809291
-13.739,0.5974962220809291
-13.7385,0.745067324824867
-13.738,0.8565306045569904
-13.7375,0.8635951786245193
-13.737,0.8635951786245193
-13.7365,0.8620252732761795
-13.736,0.8604553679278398
-13.7355,0.7238736026222802
-13.735,0.5920015533617399
-13.7345,0.5935714587100797
-13.734,0.5935714587100797
-13.7335,0.5951413640584194
-13.733,0.5951413640584194
-13.7325,0.5959263167325893
-13.732,0.5967112694067592
-13.7315,0.5974962220809291
-13.731,0.5974962220809291
-13.7305,0.598281174755099
-13.73,0.5990661274292689
-13.7295,0.6210448023060255
-13.729,0.8298422136352144
-13.7285,0.8290572609610445
-13.728,0.8298422136352144
-13.7275,0.8298422136352144
-13.727,0.8306271663093843
-13.7265,0.8259174502643649
-13.726,0.7945193432975697
-13.7255,0.5951413640584194
-13.725,0.5935714587100797
-13.7245,0.5943564113842495
-13.724,0.5951413640584194
-13.7235,0.5959263167325893
-13.723,0.5974962220809291
-13.7225,0.5974962220809291
-13.722,0.6618623413628595
-13.7215,0.852605841186141
-13.721,0.8612403206020096
-13.7205,0.8612403206020096
-13.72,0.8612403206020096
-13.7195,0.8596704152536699
-13.719,0.8110033494551372
-13.7185,0.5920015533617399
-13.718,0.5935714587100797
-13.7175,0.5935714587100797
-13.717,0.5951413640584194
-13.7165,0.5951413640584194
-13.716,0.5959263167325893
-13.7155,0.5967112694067592
-13.715,0.5967112694067592
-13.7145,0.5974962220809291
-13.714,0.598281174755099
-13.7135,0.598281174755099
-13.713,0.5990661274292689
-13.7125,0.7764654317916624
-13.712,0.8306271663093843
-13.7115,0.8282723082868746
-13.711,0.8298422136352144
-13.7105,0.8298422136352144
-13.71,0.8282723082868746
-13.7095,0.8227776395676855
-13.709,0.6422385245086124
-13.7085,0.5927865060359098
-13.708,0.5943564113842495
-13.7075,0.5959263167325893
-13.707,0.5959263167325893
-13.7065,0.5967112694067592
-13.706,0.5974962220809291
-13.7055,0.5974962220809291
-13.705,0.8329820243318939
-13.7045,0.8604553679278398
-13.704,0.8628102259503494
-13.7035,0.8620252732761795
-13.703,0.8620252732761795
-13.7025,0.8596704152536699
-13.702,0.631249187070234
-13.7015,0.5927865060359098
-13.701,0.5943564113842495
-13.7005,0.5943564113842495
-13.7,0.5951413640584194
-13.6995,0.5959263167325893
-13.699,0.5967112694067592
-13.6985,0.5967112694067592
-13.698,0.598281174755099
-13.6975,0.598281174755099
-13.697,0.5990661274292689
-13.6965,0.5990661274292689
-13.696,0.7011099750713536
-13.6955,0.8298422136352144
-13.695,0.8298422136352144
-13.6945,0.8298422136352144
-13.694,0.8298422136352144
-13.6935,0.8298422136352144
-13.693,0.825132497590195
-13.6925,0.7160240758805814
-13.692,0.5943564113842495
-13.6915,0.5951413640584194
-13.691,0.5951413640584194
-13.6905,0.5967112694067592
-13.69,0.5959263167325893
-13.6895,0.5974962220809291
-13.689,0.598281174755099
-13.6885,0.7560566622632454
-13.688,0.8596704152536699
-13.6875,0.8635951786245193
-13.687,0.8635951786245193
-13.6865,0.8628102259503494
-13.686,0.8604553679278398
-13.6855,0.718378933903091
-13.685,0.5920015533617399
-13.6845,0.5943564113842495
-13.684,0.5943564113842495
-13.6835,0.5951413640584194
-13.683,0.5959263167325893
-13.6825,0.5959263167325893
-13.682,0.5967112694067592
-13.6815,0.5974962220809291
-13.681,0.5974962220809291
-13.6805,0.598281174755099
-13.68,0.5990661274292689
-13.6795,0.6218297549801954
-13.679,0.8298422136352144
-13.6785,0.8306271663093843
-13.678,0.8314121189835542
-13.6775,0.8314121189835542
-13.677,0.8314121189835542
-13.6765,0.8282723082868746
-13.676,0.79216448527506
-13.6755,0.5943564113842495
-13.675,0.5943564113842495
-13.6745,0.5951413640584194
-13.674,0.5959263167325893
-13.6735,0.5967112694067592
-13.673,0.5967112694067592
-13.6725,0.5974962220809291
-13.672,0.6642171993853692
-13.6715,0.8549606992086506
-13.671,0.8620252732761795
-13.6705,0.8635951786245193
-13.67,0.8620252732761795
-13.6695,0.8620252732761795
-13.669,0.8047237280617782
-13.6685,0.5935714587100797
-13.668,0.5927865060359098
-13.6675,0.5935714587100797
-13.667,0.5943564113842495
-13.6665,0.5951413640584194
-13.666,0.5959263167325893
-13.6655,0.5959263167325893
-13.665,0.5967112694067592
-13.6645,0.5974962220809291
-13.664,0.5974962220809291
-13.6635,0.598281174755099
-13.663,0.5990661274292689
-13.6625,0.7780353371400022
-13.662,0.8298422136352144
-13.6615,0.8290572609610445
-13.661,0.8298422136352144
-13.6605,0.8306271663093843
-13.66,0.8298422136352144
-13.6595,0.8235625922418554
-13.659,0.6430234771827823
-13.6585,0.5927865060359098
-13.658,0.5959263167325893
-13.6575,0.5943564113842495
-13.657,0.5967112694067592
-13.6565,0.5967112694067592
-13.656,0.5974962220809291
-13.6555,0.5990661274292689
-13.655,0.8376917403769132
-13.6545,0.8596704152536699
-13.654,0.8635951786245193
-13.6535,0.8635951786245193
-13.653,0.8612403206020096
-13.6525,0.8612403206020096
-13.652,0.6273244236993847
-13.6515,0.5920015533617399
-13.651,0.5935714587100797
-13.6505,0.5935714587100797
-13.65,0.5951413640584194
-13.6495,0.5951413640584194
-13.649,0.5959263167325893
-13.6485,0.5967112694067592
-13.648,0.5974962220809291
-13.6475,0.598281174755099
-13.647,0.598281174755099
-13.6465,0.5990661274292689
-13.646,0.7003250223971837
-13.6455,0.8306271663093843
-13.645,0.8290572609610445
-13.6445,0.8306271663093843
-13.644,0.8306271663093843
-13.6435,0.8298422136352144
-13.643,0.8259174502643649
-13.6425,0.7128842651839018
-13.642,0.5943564113842495
-13.6415,0.5935714587100797
-13.641,0.5951413640584194
-13.6405,0.5967112694067592
-13.64,0.5959263167325893
-13.6395,0.5967112694067592
-13.639,0.5974962220809291
-13.6385,0.7513469462182261
-13.638,0.8573155572311603
-13.6375,0.8628102259503494
-13.637,0.8620252732761795
-13.6365,0.8620252732761795
-13.636,0.8604553679278398
-13.6355,0.7168090285547513
-13.635,0.5927865060359098
-13.6345,0.5943564113842495
-13.634,0.5935714587100797
-13.6335,0.5943564113842495
-13.633,0.5959263167325893
-13.6325,0.5959263167325893
-13.632,0.5959263167325893
-13.6315,0.5967112694067592
-13.631,0.598281174755099
-13.6305,0.598281174755099
-13.63,0.598281174755099
-13.6295,0.6257545183510449
-13.629,0.8290572609610445
-13.6285,0.8306271663093843
-13.628,0.8306271663093843
-13.6275,0.8298422136352144
-13.627,0.8306271663093843
-13.6265,0.8274873556127047
-13.626,0.7898096272525503
-13.6255,0.5943564113842495
-13.625,0.5935714587100797
-13.6245,0.5951413640584194
-13.624,0.5967112694067592
-13.6235,0.5959263167325893
-13.623,0.5967112694067592
-13.6225,0.5974962220809291
-13.622,0.6665720574078787
-13.6215,0.8565306045569904
-13.621,0.8620252732761795
-13.6205,0.8635951786245193
-13.62,0.8635951786245193
-13.6195,0.8620252732761795
-13.619,0.8070785860842877
-13.6185,0.5927865060359098
-13.618,0.5927865060359098
-13.6175,0.5935714587100797
-13.617,0.5943564113842495
-13.6165,0.5951413640584194
-13.616,0.5959263167325893
-13.6155,0.5967112694067592
-13.615,0.5967112694067592
-13.6145,0.5974962220809291
-13.614,0.598281174755099
-13.6135,0.5990661274292689
-13.613,0.5998510801034388
-13.6125,0.7835300058591913
-13.612,0.8282723082868746
-13.6115,0.8306271663093843
-13.611,0.8282723082868746
-13.6105,0.8298422136352144
-13.61,0.8290572609610445
-13.6095,0.8219926868935156
-13.609,0.6383137611377629
-13.6085,0.5935714587100797
-13.608,0.5943564113842495
-13.6075,0.5951413640584194
-13.607,0.5959263167325893
-13.6065,0.5974962220809291
-13.606,0.5974962220809291
-13.6055,0.598281174755099
-13.605,0.8416165037477626
-13.6045,0.8588854625795
-13.604,0.8635951786245193
-13.6035,0.8628102259503494
-13.603,0.8612403206020096
-13.6025,0.8604553679278398
-13.602,0.6281093763735546
-13.6015,0.5935714587100797
-13.601,0.5943564113842495
-13.6005,0.5943564113842495
-13.6,0.5943564113842495
-13.5995,0.5959263167325893
-13.599,0.5967112694067592
-13.5985,0.5967112694067592
-13.598,0.5974962220809291
-13.5975,0.5974962220809291
-13.597,0.5990661274292689
-13.5965,0.5990661274292689
-13.596,0.7058196911163729
-13.5955,0.8282723082868746
-13.595,0.8306271663093843
-13.5945,0.8306271663093843
-13.594,0.8314121189835542
-13.5935,0.8306271663093843
-13.593,0.8259174502643649
-13.5925,0.7136692178580717
-13.592,0.5935714587100797
-13.5915,0.5951413640584194
-13.591,0.5951413640584194
-13.5905,0.5959263167325893
-13.59,0.5967112694067592
-13.5895,0.5974962220809291
-13.589,0.598281174755099
-13.5885,0.7537018042407357
-13.588,0.8557456518828205
-13.5875,0.8643801312986892
-13.587,0.8620252732761795
-13.5865,0.8628102259503494
-13.586,0.8604553679278398
-13.5855,0.7136692178580717
-13.585,0.5927865060359098
-13.5845,0.5935714587100797
-13.584,0.5951413640584194
-13.5835,0.5943564113842495
-13.583,0.5959263167325893
-13.5825,0.5959263167325893
-13.582,0.5967112694067592
-13.5815,0.5974962220809291
-13.581,0.598281174755099
-13.5805,0.5990661274292689
-13.58,0.5990661274292689
-13.5795,0.6281093763735546
-13.579,0.8282723082868746
-13.5785,0.8298422136352144
-13.578,0.8282723082868746
-13.5775,0.8298422136352144
-13.577,0.8306271663093843
-13.5765,0.8274873556127047
-13.576,0.785884863881701
-13.5755,0.5943564113842495
-13.575,0.5943564113842495
-13.5745,0.5943564113842495
-13.574,0.5959263167325893
-13.5735,0.5959263167325893
-13.573,0.5967112694067592
-13.5725,0.5974962220809291
-13.572,0.6752065368237475
-13.5715,0.8533907938603109
-13.571,0.8612403206020096
-13.5705,0.8635951786245193
-13.57,0.8620252732761795
-13.5695,0.8604553679278398
-13.569,0.8062936334101178
-13.5685,0.5912166006875701
-13.568,0.5943564113842495
-13.5675,0.5943564113842495
-13.567,0.5943564113842495
-13.5665,0.5951413640584194
-13.566,0.5959263167325893
-13.5655,0.5959263167325893
-13.565,0.5967112694067592
-13.5645,0.598281174755099
-13.564,0.5974962220809291
-13.5635,0.5990661274292689
-13.563,0.5990661274292689
-13.5625,0.7819601005108515
-13.562,0.8298422136352144
-13.5615,0.8298422136352144
-13.561,0.8306271663093843
-13.5605,0.8298422136352144
-13.56,0.8298422136352144
-13.5595,0.8219926868935156
-13.559,0.6359589031152534
-13.5585,0.5935714587100797
-13.558,0.5943564113842495
-13.5575,0.5967112694067592
-13.557,0.5967112694067592
-13.5565,0.5967112694067592
-13.556,0.5967112694067592
-13.5555,0.5990661274292689
-13.555,0.839261645725253
-13.5545,0.8581005099053302
-13.554,0.8628102259503494
-13.5535,0.8604553679278398
-13.553,0.8612403206020096
-13.5525,0.8588854625795
-13.552,0.6233996603285352
-13.5515,0.5943564113842495
-13.551,0.5935714587100797
-13.5505,0.5943564113842495
-13.55,0.5951413640584194
-13.5495,0.5959263167325893
-13.549,0.5959263167325893
-13.5485,0.5974962220809291
-13.548,0.5974962220809291
-13.5475,0.598281174755099
-13.547,0.598281174755099
-13.5465,0.5998510801034388
-13.546,0.7073895964647127
-13.5455,0.8282723082868746
-13.545,0.8282723082868746
-13.5445,0.8298422136352144
-13.544,0.8298422136352144
-13.5435,0.8306271663093843
-13.543,0.825132497590195
-13.5425,0.7113143598355621
-13.542,0.5935714587100797
-13.5415,0.5951413640584194
-13.541,0.5951413640584194
-13.5405,0.5959263167325893
-13.54,0.5967112694067592
-13.5395,0.5974962220809291
-13.539,0.5974962220809291
-13.5385,0.7599814256340949
-13.538,0.8573155572311603
-13.5375,0.8628102259503494
-13.537,0.8635951786245193
-13.5365,0.8612403206020096
-13.536,0.8604553679278398
-13.5355,0.7113143598355621
-13.535,0.5927865060359098
-13.5345,0.5935714587100797
-13.534,0.5943564113842495
-13.5335,0.5943564113842495
-13.533,0.5959263167325893
-13.5325,0.5959263167325893
-13.532,0.5959263167325893
-13.5315,0.5974962220809291
-13.531,0.598281174755099
-13.5305,0.598281174755099
-13.53,0.5990661274292689
-13.5295,0.6320341397444039
-13.529,0.8282723082868746
-13.5285,0.8290572609610445
-13.528,0.8290572609610445
-13.5275,0.8298422136352144
-13.527,0.8314121189835542
-13.5265,0.8274873556127047
-13.526,0.7843149585333612
-13.5255,0.5959263167325893
-13.525,0.5943564113842495
-13.5245,0.5951413640584194
-13.524,0.5951413640584194
-13.5235,0.5959263167325893
-13.523,0.5974962220809291
-13.5225,0.5974962220809291
-13.522,0.672066726127068
-13.5215,0.8565306045569904
-13.521,0.8612403206020096
-13.5205,0.8643801312986892
-13.52,0.8628102259503494
-13.5195,0.8628102259503494
-13.519,0.8039387753876083
-13.5185,0.5920015533617399
-13.518,0.5920015533617399
-13.5175,0.5943564113842495
-13.517,0.5951413640584194
-13.5165,0.5951413640584194
-13.516,0.5967112694067592
-13.5155,0.5967112694067592
-13.515,0.5974962220809291
-13.5145,0.5974962220809291
-13.514,0.598281174755099
-13.5135,0.598281174755099
-13.513,0.5998510801034388
-13.5125,0.7882397219042105
-13.512,0.8306271663093843
-13.5115,0.8321970716577241
-13.511,0.8314121189835542
-13.5105,0.8314121189835542
-13.51,0.8306271663093843
-13.5095,0.8243475449160251
-13.509,0.6359589031152534
-13.5085,0.5935714587100797
-13.508,0.5959263167325893
-13.5075,0.5959263167325893
-13.507,0.5967112694067592
-13.5065,0.5967112694067592
-13.506,0.598281174755099
-13.5055,0.5990661274292689
-13.505,0.8424014564219324
-13.5045,0.8588854625795
-13.504,0.8620252732761795
-13.5035,0.8628102259503494
-13.503,0.8612403206020096
-13.5025,0.8588854625795
-13.502,0.6226147076543653
-13.5015,0.5927865060359098
-13.501,0.5935714587100797
-13.5005,0.5943564113842495
-13.5,0.5943564113842495
-13.4995,0.5959263167325893
-13.499,0.5959263167325893
-13.4985,0.5967112694067592
-13.498,0.5974962220809291
-13.4975,0.598281174755099
-13.497,0.598281174755099
-13.4965,0.5998510801034388
-13.496,0.712099312509732
-13.4955,0.8290572609610445
-13.495,0.8306271663093843
-13.4945,0.8306271663093843
-13.494,0.8306271663093843
-13.4935,0.8306271663093843
-13.493,0.8259174502643649
-13.4925,0.7097444544872223
-13.492,0.5935714587100797
-13.4915,0.5951413640584194
-13.491,0.5943564113842495
-13.4905,0.5967112694067592
-13.49,0.5959263167325893
-13.4895,0.5967112694067592
-13.489,0.5974962220809291
-13.4885,0.7670459997016238
-13.488,0.8596704152536699
-13.4875,0.8635951786245193
-13.487,0.8643801312986892
-13.4865,0.8628102259503494
-13.486,0.8620252732761795
-13.4855,0.7097444544872223
-13.485,0.5935714587100797
-13.4845,0.5935714587100797
-13.484,0.5943564113842495
-13.4835,0.5935714587100797
-13.483,0.5951413640584194
-13.4825,0.5967112694067592
-13.482,0.5943564113842495
-13.4815,0.5974962220809291
-13.481,0.5974962220809291
-13.4805,0.598281174755099
-13.48,0.598281174755099
-13.4795,0.6343889977669136
-13.479,0.8314121189835542
-13.4785,0.8298422136352144
-13.478,0.8306271663093843
-13.4775,0.8321970716577241
-13.477,0.8314121189835542
-13.4765,0.8282723082868746
-13.476,0.778820289814172
-13.4755,0.5959263167325893
-13.475,0.5943564113842495
-13.4745,0.5951413640584194
-13.474,0.5951413640584194
-13.4735,0.5959263167325893
-13.473,0.5967112694067592
-13.4725,0.5974962220809291
-13.472,0.6807012055429367
-13.4715,0.8549606992086506
-13.471,0.8643801312986892
-13.4705,0.8651650839728591
-13.47,0.8643801312986892
-13.4695,0.8620252732761795
-13.469,0.8015839173650986
-13.4685,0.5912166006875701
-13.468,0.5935714587100797
-13.4675,0.5935714587100797
-13.467,0.5943564113842495
-13.4665,0.5943564113842495
-13.466,0.5959263167325893
-13.4655,0.5974962220809291
-13.465,0.5967112694067592
-13.4645,0.598281174755099
-13.464,0.598281174755099
-13.4635,0.598281174755099
-13.463,0.5990661274292689
-13.4625,0.7874547692300407
-13.462,0.8282723082868746
-13.4615,0.8298422136352144
-13.461,0.8306271663093843
-13.4605,0.8298422136352144
-13.46,0.8290572609610445
-13.4595,0.8243475449160251
-13.459,0.6273244236993847
-13.4585,0.5951413640584194
-13.458,0.5943564113842495
-13.4575,0.5959263167325893
-13.457,0.5959263167325893
-13.4565,0.5967112694067592
-13.456,0.5974962220809291
-13.4555,0.5998510801034388
-13.455,0.8447563144444421
-13.4545,0.8612403206020096
-13.454,0.8635951786245193
-13.4535,0.8628102259503494
-13.453,0.8628102259503494
-13.4525,0.8588854625795
-13.452,0.6202598496318557
-13.4515,0.5927865060359098
-13.451,0.5943564113842495
-13.4505,0.5943564113842495
-13.45,0.5943564113842495
-13.4495,0.5951413640584194
-13.449,0.5967112694067592
-13.4485,0.5967112694067592
-13.448,0.5974962220809291
-13.4475,0.598281174755099
-13.447,0.598281174755099
-13.4465,0.5990661274292689
-13.446,0.7128842651839018
-13.4455,0.8282723082868746
-13.445,0.8290572609610445
-13.4445,0.8274873556127047
-13.444,0.8298422136352144
-13.4435,0.8290572609610445
-13.443,0.8235625922418554
-13.4425,0.705034738442203
-13.442,0.5935714587100797
-13.4415,0.5943564113842495
-13.441,0.5951413640584194
-13.4405,0.5959263167325893
-13.44,0.5967112694067592
-13.4395,0.5967112694067592
-13.439,0.5974962220809291
-13.4385,0.7631212363307743
-13.438,0.8565306045569904
-13.4375,0.8628102259503494
-13.437,0.8628102259503494
-13.4365,0.8604553679278398
-13.436,0.8604553679278398
-13.4355,0.705034738442203
-13.435,0.5920015533617399
-13.4345,0.5943564113842495
-13.434,0.5943564113842495
-13.4335,0.5951413640584194
-13.433,0.5951413640584194
-13.4325,0.5959263167325893
-13.432,0.5959263167325893
-13.4315,0.5974962220809291
-13.431,0.5974962220809291
-13.4305,0.598281174755099
-13.43,0.5990661274292689
-13.4295,0.6359589031152534
-13.429,0.8282723082868746
-13.4285,0.8282723082868746
-13.428,0.8298422136352144
-13.4275,0.8298422136352144
-13.427,0.8306271663093843
-13.4265,0.8274873556127047
-13.426,0.7764654317916624
-13.4255,0.5959263167325893
-13.425,0.5943564113842495
-13.4245,0.5951413640584194
-13.424,0.5959263167325893
-13.4235,0.5967112694067592
-13.423,0.5974962220809291
-13.4225,0.5974962220809291
-13.422,0.6822711108912765
-13.4215,0.8549606992086506
-13.421,0.8612403206020096
-13.4205,0.8612403206020096
-13.42,0.8612403206020096
-13.4195,0.8612403206020096
-13.419,0.7929494379492299
-13.4185,0.5935714587100797
-13.418,0.5935714587100797
-13.4175,0.5943564113842495
-13.417,0.5943564113842495
-13.4165,0.5951413640584194
-13.416,0.5959263167325893
-13.4155,0.5967112694067592
-13.415,0.5967112694067592
-13.4145,0.5974962220809291
-13.414,0.598281174755099
-13.4135,0.5990661274292689
-13.413,0.5998510801034388
-13.4125,0.7913795326008901
-13.412,0.8290572609610445
-13.4115,0.8298422136352144
-13.411,0.8298422136352144
-13.4105,0.8306271663093843
-13.41,0.8274873556127047
-13.4095,0.8235625922418554
-13.409,0.6241846130027051
-13.4085,0.5943564113842495
-13.408,0.5951413640584194
-13.4075,0.5959263167325893
-13.407,0.5967112694067592
-13.4065,0.5967112694067592
-13.406,0.5974962220809291
-13.4055,0.6006360327776086
-13.405,0.8463262197927819
-13.4045,0.8604553679278398
-13.404,0.8620252732761795
-13.4035,0.8620252732761795
-13.403,0.8604553679278398
-13.4025,0.8596704152536699
-13.402,0.6108404175418171
-13.4015,0.5935714587100797
-13.401,0.5943564113842495
-13.4005,0.5943564113842495
-13.4,0.5951413640584194
-13.3995,0.5951413640584194
-13.399,0.5959263167325893
-13.3985,0.5967112694067592
-13.398,0.5974962220809291
-13.3975,0.598281174755099
-13.397,0.598281174755099
-13.3965,0.5990661274292689
-13.396,0.7152391232064115
-13.3955,0.8290572609610445
-13.395,0.8282723082868746
-13.3945,0.8282723082868746
-13.394,0.8290572609610445
-13.3935,0.8290572609610445
-13.393,0.8235625922418554
-13.3925,0.7011099750713536
-13.392,0.5943564113842495
-13.3915,0.5943564113842495
-13.391,0.5959263167325893
-13.3905,0.5959263167325893
-13.39,0.5967112694067592
-13.3895,0.5974962220809291
-13.389,0.598281174755099
-13.3885,0.7694008577241334
-13.388,0.8581005099053302
-13.3875,0.8628102259503494
-13.387,0.8628102259503494
-13.3865,0.8620252732761795
-13.386,0.8596704152536699
-13.3855,0.7003250223971837
-13.385,0.5935714587100797
-13.3845,0.5943564113842495
-13.384,0.5943564113842495
-13.3835,0.5943564113842495
-13.383,0.5959263167325893
-13.3825,0.5959263167325893
-13.382,0.5967112694067592
-13.3815,0.5974962220809291
-13.381,0.5974962220809291
-13.3805,0.598281174755099
-13.38,0.598281174755099
-13.3795,0.6390987138119328
-13.379,0.8282723082868746
-13.3785,0.8282723082868746
-13.378,0.8290572609610445
-13.3775,0.8298422136352144
-13.377,0.8298422136352144
-13.3765,0.8259174502643649
-13.376,0.7741105737691527
-13.3755,0.5959263167325893
-13.375,0.5943564113842495
-13.3745,0.5943564113842495
-13.374,0.5967112694067592
-13.3735,0.5967112694067592
-13.373,0.5967112694067592
-13.3725,0.598281174755099
-13.372,0.6822711108912765
-13.3715,0.852605841186141
-13.371,0.8628102259503494
-13.3705,0.8612403206020096
-13.37,0.8620252732761795
-13.3695,0.8588854625795
-13.369,0.7898096272525503
-13.3685,0.5943564113842495
-13.368,0.5935714587100797
-13.3675,0.5943564113842495
-13.367,0.5951413640584194
-13.3665,0.5951413640584194
-13.366,0.5967112694067592
-13.3655,0.5967112694067592
-13.365,0.5974962220809291
-13.3645,0.598281174755099
-13.364,0.598281174755099
-13.3635,0.5990661274292689
-13.363,0.5990661274292689
-13.3625,0.79216448527506
-13.362,0.8282723082868746
-13.3615,0.8290572609610445
-13.361,0.8298422136352144
-13.3605,0.8314121189835542
-13.36,0.8290572609610445
-13.3595,0.8235625922418554
-13.359,0.6233996603285352
-13.3585,0.5943564113842495
-13.358,0.5943564113842495
-13.3575,0.5967112694067592
-13.357,0.5967112694067592
-13.3565,0.5967112694067592
-13.356,0.5974962220809291
-13.3555,0.6014209854517785
-13.355,0.8494660304894615
-13.3545,0.8612403206020096
-13.354,0.8643801312986892
-13.3535,0.8643801312986892
-13.353,0.8643801312986892
-13.3525,0.8620252732761795
-13.352,0.6139802282384966
-13.3515,0.5927865060359098
-13.351,0.5943564113842495
-13.3505,0.5943564113842495
-13.35,0.5959263167325893
-13.3495,0.5959263167325893
-13.349,0.5967112694067592
-13.3485,0.5967112694067592
-13.348,0.5974962220809291
-13.3475,0.598281174755099
-13.347,0.598281174755099
-13.3465,0.5998510801034388
-13.346,0.7215187445997706
-13.3455,0.8384766930510831
-13.345,0.8384766930510831
-13.3445,0.8384766930510831
-13.344,0.8408315510735928
-13.3435,0.839261645725253
-13.343,0.8353368823544036
-13.3425,0.7026798804196934
-13.342,0.5943564113842495
-13.3415,0.5943564113842495
-13.341,0.5943564113842495
-13.3405,0.5959263167325893
-13.34,0.5974962220809291
-13.3395,0.5967112694067592
-13.339,0.5974962220809291
-13.3385,0.7772503844658323
-13.338,0.8706597526920483
-13.3375,0.8753694687370676
-13.337,0.8761544214112374
-13.3365,0.8753694687370676
-13.336,0.8745845160628977
-13.3355,0.7066046437905428
-13.335,0.5927865060359098
-13.3345,0.5927865060359098
-13.334,0.5935714587100797
-13.3335,0.5943564113842495
-13.333,0.5951413640584194
-13.3325,0.5951413640584194
-13.332,0.5967112694067592
-13.3315,0.5967112694067592
-13.331,0.5974962220809291
-13.3305,0.598281174755099
-13.33,0.5990661274292689
-13.3295,0.6430234771827823
-13.329,0.8424014564219324
-13.3285,0.8424014564219324
-13.328,0.8424014564219324
-13.3275,0.8424014564219324
-13.327,0.8416165037477626
-13.3265,0.8361218350285734
-13.326,0.7803901951625117
-13.3255,0.5927865060359098
-13.325,0.5943564113842495
-13.3245,0.5935714587100797
-13.324,0.5943564113842495
-13.3235,0.5959263167325893
-13.323,0.5959263167325893
-13.3225,0.5967112694067592
-13.322,0.6854109215879559
-13.3215,0.8612403206020096
-13.321,0.865950036647029
-13.3205,0.865950036647029
-13.32,0.865950036647029
-13.3195,0.8643801312986892
-13.319,0.7890246745783804
-13.3185,0.5927865060359098
-13.318,0.5920015533617399
-13.3175,0.5920015533617399
-13.317,0.5935714587100797
-13.3165,0.5935714587100797
-13.316,0.5943564113842495
-13.3155,0.5959263167325893
-13.315,0.5959263167325893
-13.3145,0.5967112694067592
-13.314,0.5967112694067592
-13.3135,0.5974962220809291
-13.313,0.598281174755099
-13.3125,0.7905945799267202
-13.312,0.8235625922418554
-13.3115,0.8243475449160251
-13.311,0.8243475449160251
-13.3105,0.8259174502643649
-13.31,0.8235625922418554
-13.3095,0.8180679235226661
-13.309,0.6194748969576858
-13.3085,0.5935714587100797
-13.308,0.5943564113842495
-13.3075,0.5943564113842495
-13.307,0.5951413640584194
-13.3065,0.5959263167325893
-13.306,0.5967112694067592
-13.3055,0.6006360327776086
-13.305,0.8478961251411217
-13.3045,0.8573155572311603
-13.304,0.8612403206020096
-13.3035,0.8612403206020096
-13.303,0.8604553679278398
-13.3025,0.8581005099053302
-13.302,0.6092705121934774
-13.3015,0.5935714587100797
-13.301,0.5927865060359098
-13.3005,0.5935714587100797
-13.3,0.5943564113842495
-13.2995,0.5951413640584194
-13.299,0.5951413640584194
-13.2985,0.5959263167325893
-13.298,0.5967112694067592
-13.2975,0.5974962220809291
-13.297,0.5974962220809291
-13.2965,0.598281174755099
-13.296,0.718378933903091
-13.2955,0.8290572609610445
-13.295,0.8282723082868746
-13.2945,0.8282723082868746
-13.294,0.8282723082868746
-13.2935,0.8298422136352144
-13.293,0.8227776395676855
-13.2925,0.6956153063521644
-13.292,0.5935714587100797
-13.2915,0.5927865060359098
-13.291,0.5951413640584194
-13.2905,0.5951413640584194
-13.29,0.5967112694067592
-13.2895,0.5967112694067592
-13.289,0.5974962220809291
-13.2885,0.7725406684208129
-13.288,0.8557456518828205
-13.2875,0.8612403206020096
-13.287,0.8612403206020096
-13.2865,0.8604553679278398
-13.286,0.8588854625795
-13.2855,0.6924754956554849
-13.285,0.5927865060359098
-13.2845,0.5935714587100797
-13.284,0.5943564113842495
-13.2835,0.5943564113842495
-13.283,0.5951413640584194
-13.2825,0.5951413640584194
-13.282,0.5967112694067592
-13.2815,0.5959263167325893
-13.281,0.5974962220809291
-13.2805,0.598281174755099
-13.28,0.598281174755099
-13.2795,0.6430234771827823
-13.279,0.8290572609610445
-13.2785,0.8274873556127047
-13.278,0.8290572609610445
-13.2775,0.8282723082868746
-13.277,0.8290572609610445
-13.2765,0.8267024029385348
-13.276,0.7709707630724731
-13.2755,0.5943564113842495
-13.275,0.5943564113842495
-13.2745,0.5951413640584194
-13.274,0.5951413640584194
-13.2735,0.5967112694067592
-13.273,0.5967112694067592
-13.2725,0.5967112694067592
-13.272,0.6877657796104656
-13.2715,0.8518208885119711
-13.271,0.8604553679278398
-13.2705,0.8612403206020096
-13.27,0.8604553679278398
-13.2695,0.8588854625795
-13.269,0.7819601005108515
-13.2685,0.5935714587100797
-13.268,0.5927865060359098
-13.2675,0.5943564113842495
-13.267,0.5943564113842495
-13.2665,0.5943564113842495
-13.266,0.5959263167325893
-13.2655,0.5959263167325893
-13.265,0.5959263167325893
-13.2645,0.5967112694067592
-13.264,0.598281174755099
-13.2635,0.598281174755099
-13.263,0.5990661274292689
-13.2625,0.7976591539942491
-13.262,0.8282723082868746
-13.2615,0.8298422136352144
-13.261,0.8282723082868746
-13.2605,0.8298422136352144
-13.26,0.8282723082868746
-13.2595,0.8219926868935156
-13.259,0.6171200389351762
-13.2585,0.5943564113842495
-13.258,0.5943564113842495
-13.2575,0.5951413640584194
-13.257,0.5959263167325893
-13.2565,0.5967112694067592
-13.256,0.5974962220809291
-13.2555,0.6029908908001183
-13.255,0.8518208885119711
-13.2545,0.8596704152536699
-13.254,0.8620252732761795
-13.2535,0.8620252732761795
-13.253,0.8620252732761795
-13.2525,0.8596704152536699
-13.252,0.6061307014967978
-13.2515,0.5927865060359098
-13.251,0.5935714587100797
-13.2505,0.5951413640584194
-13.25,0.5951413640584194
-13.2495,0.5959263167325893
-13.249,0.5967112694067592
-13.2485,0.5967112694067592
-13.248,0.5974962220809291
-13.2475,0.598281174755099
-13.247,0.598281174755099
-13.2465,0.5990661274292689
-13.246,0.7223036972739405
-13.2455,0.8298422136352144
-13.245,0.8290572609610445
-13.2445,0.8306271663093843
-13.244,0.8298422136352144
-13.2435,0.8298422136352144
-13.243,0.8243475449160251
-13.2425,0.6948303536779945
-13.242,0.5951413640584194
-13.2415,0.5943564113842495
-13.241,0.5951413640584194
-13.2405,0.5959263167325893
-13.24,0.5967112694067592
-13.2395,0.5974962220809291
-13.239,0.5974962220809291
-13.2385,0.7733256210949828
-13.238,0.8581005099053302
-13.2375,0.8628102259503494
-13.237,0.8628102259503494
-13.2365,0.8612403206020096
-13.236,0.8596704152536699
-13.2355,0.6948303536779945
-13.235,0.5927865060359098
-13.2345,0.5935714587100797
-13.234,0.5943564113842495
-13.2335,0.5951413640584194
-13.233,0.5959263167325893
-13.2325,0.5959263167325893
-13.232,0.5967112694067592
-13.2315,0.5967112694067592
-13.231,0.5974962220809291
-13.2305,0.598281174755099
-13.23,0.5990661274292689
-13.2295,0.6461632878794619
-13.229,0.8298422136352144
-13.2285,0.8282723082868746
-13.228,0.8282723082868746
-13.2275,0.8290572609610445
-13.227,0.8306271663093843
-13.2265,0.8259174502643649
-13.226,0.7678309523757937
-13.2255,0.5927865060359098
-13.225,0.5951413640584194
-13.2245,0.5951413640584194
-13.224,0.5959263167325893
-13.2235,0.5974962220809291
-13.223,0.5967112694067592
-13.2225,0.5974962220809291
-13.222,0.6964002590263343
-13.2215,0.8565306045569904
-13.221,0.8628102259503494
-13.2205,0.8635951786245193
-13.22,0.8628102259503494
-13.2195,0.8620252732761795
-13.219,0.7780353371400022
-13.2185,0.5927865060359098
-13.218,0.5943564113842495
-13.2175,0.5943564113842495
-13.217,0.5951413640584194
-13.2165,0.5959263167325893
-13.216,0.5951413640584194
-13.2155,0.5967112694067592
-13.215,0.5967112694067592
-13.2145,0.5974962220809291
-13.214,0.598281174755099
-13.2135,0.598281174755099
-13.213,0.5998510801034388
-13.2125,0.8007989646909287
-13.212,0.8298422136352144
-13.2115,0.8306271663093843
-13.211,0.8298422136352144
-13.2105,0.8321970716577241
-13.21,0.8290572609610445
-13.2095,0.8243475449160251
-13.209,0.6171200389351762
-13.2085,0.5951413640584194
-13.208,0.5951413640584194
-13.2075,0.5959263167325893
-13.207,0.5959263167325893
-13.2065,0.5967112694067592
-13.206,0.5974962220809291
-13.2055,0.6053457488226279
-13.205,0.8549606992086506
-13.2045,0.8612403206020096
-13.204,0.8628102259503494
-13.2035,0.8612403206020096
-13.203,0.8620252732761795
-13.2025,0.8588854625795
-13.202,0.6069156541709677
-13.2015,0.5920015533617399
-13.201,0.5943564113842495
-13.2005,0.5943564113842495
-13.2,0.5951413640584194
-13.1995,0.5951413640584194
-13.199,0.5967112694067592
-13.1985,0.5974962220809291
-13.198,0.5967112694067592
-13.1975,0.5990661274292689
-13.197,0.5990661274292689
-13.1965,0.5998510801034388
-13.196,0.72544350797062
-13.1955,0.8298422136352144
-13.195,0.8306271663093843
-13.1945,0.8290572609610445
-13.194,0.8321970716577241
-13.1935,0.8306271663093843
-13.193,0.825132497590195
-13.1925,0.6893356849588054
-13.192,0.5951413640584194
-13.1915,0.5951413640584194
-13.191,0.5951413640584194
-13.1905,0.5967112694067592
-13.19,0.5967112694067592
-13.1895,0.5974962220809291
-13.189,0.598281174755099
-13.1885,0.7772503844658323
-13.188,0.8596704152536699
-13.1875,0.8643801312986892
-13.187,0.8635951786245193
-13.1865,0.8628102259503494
-13.186,0.8612403206020096
-13.1855,0.6924754956554849
-13.185,0.5912166006875701
-13.1845,0.5943564113842495
-13.184,0.5943564113842495
-13.1835,0.5951413640584194
-13.183,0.5951413640584194
-13.1825,0.5959263167325893
-13.182,0.5967112694067592
-13.1815,0.5967112694067592
-13.181,0.598281174755099
-13.1805,0.598281174755099
-13.18,0.5990661274292689
-13.1795,0.6485181459019714
-13.179,0.8306271663093843
-13.1785,0.8314121189835542
-13.178,0.8298422136352144
-13.1775,0.8298422136352144
-13.177,0.8321970716577241
-13.1765,0.8267024029385348
-13.176,0.7701858103983032
-13.1755,0.5935714587100797
-13.175,0.5951413640584194
-13.1745,0.5951413640584194
-13.174,0.5959263167325893
-13.1735,0.5967112694067592
-13.173,0.5974962220809291
-13.1725,0.5974962220809291
-13.172,0.6924754956554849
-13.1715,0.8557456518828205
-13.171,0.8635951786245193
-13.1705,0.8643801312986892
-13.17,0.8635951786245193
-13.1695,0.8620252732761795
-13.169,0.7811751478366816
-13.1685,0.5935714587100797
-13.168,0.5935714587100797
-13.1675,0.5943564113842495
-13.167,0.5951413640584194
-13.1665,0.5959263167325893
-13.166,0.5959263167325893
-13.1655,0.5959263167325893
-13.165,0.5974962220809291
-13.1645,0.5974962220809291
-13.164,0.5974962220809291
-13.1635,0.5990661274292689
-13.163,0.5990661274292689
-13.1625,0.8039387753876083
-13.162,0.8298422136352144
-13.1615,0.8306271663093843
-13.161,0.8290572609610445
-13.1605,0.8314121189835542
-13.16,0.8282723082868746
-13.1595,0.8227776395676855
-13.159,0.6139802282384966
-13.1585,0.5935714587100797
-13.158,0.5943564113842495
-13.1575,0.5951413640584194
-13.157,0.5951413640584194
-13.1565,0.5967112694067592
-13.156,0.5974962220809291
-13.1555,0.6069156541709677
-13.155,0.8557456518828205
-13.1545,0.8628102259503494
-13.154,0.8635951786245193
-13.1535,0.8651650839728591
-13.153,0.8628102259503494
-13.1525,0.8596704152536699
-13.152,0.6037758434742881
-13.1515,0.5920015533617399
-13.151,0.5943564113842495
-13.1505,0.5943564113842495
-13.15,0.5951413640584194
-13.1495,0.5951413640584194
-13.149,0.5959263167325893
-13.1485,0.5967112694067592
-13.148,0.5967112694067592
-13.1475,0.598281174755099
-13.147,0.598281174755099
-13.1465,0.5990661274292689
-13.146,0.7285833186672995
-13.1455,0.8306271663093843
-13.145,0.8314121189835542
-13.1445,0.8314121189835542
-13.144,0.8314121189835542
-13.1435,0.8314121189835542
-13.143,0.825132497590195
-13.1425,0.6877657796104656
-13.142,0.5951413640584194
-13.1415,0.5943564113842495
-13.141,0.5951413640584194
-13.1405,0.5959263167325893
-13.14,0.5967112694067592
-13.1395,0.5974962220809291
-13.139,0.5974962220809291
-13.1385,0.7803901951625117
-13.138,0.8604553679278398
-13.1375,0.8667349893211989
-13.137,0.8651650839728591
-13.1365,0.8643801312986892
-13.136,0.8628102259503494
-13.1355,0.6861958742621258
-13.135,0.5920015533617399
-13.1345,0.5935714587100797
-13.134,0.5935714587100797
-13.1335,0.5951413640584194
-13.133,0.5951413640584194
-13.1325,0.5959263167325893
-13.132,0.5967112694067592
-13.1315,0.5967112694067592
-13.131,0.598281174755099
-13.1305,0.598281174755099
-13.13,0.5990661274292689
-13.1295,0.6500880512503112
-13.129,0.8329820243318939
-13.1285,0.8314121189835542
-13.128,0.8314121189835542
-13.1275,0.8314121189835542
-13.127,0.8329820243318939
-13.1265,0.8282723082868746
-13.126,0.7646911416791141
-13.1255,0.5927865060359098
-13.125,0.5943564113842495
-13.1245,0.5943564113842495
-13.124,0.5959263167325893
-13.1235,0.5959263167325893
-13.123,0.5967112694067592
-13.1225,0.5974962220809291
-13.122,0.6956153063521644
-13.1215,0.8565306045569904
-13.121,0.8643801312986892
-13.1205,0.8643801312986892
-13.12,0.8628102259503494
-13.1195,0.8620252732761795
-13.119,0.7764654317916624
-13.1185,0.5927865060359098
-13.118,0.5927865060359098
-13.1175,0.5935714587100797
-13.117,0.5943564113842495
-13.1165,0.5943564113842495
-13.116,0.5959263167325893
-13.1155,0.5959263167325893
-13.115,0.5967112694067592
-13.1145,0.5967112694067592
-13.114,0.5974962220809291
-13.1135,0.598281174755099
-13.113,0.5990661274292689
-13.1125,0.8062936334101178
-13.112,0.8306271663093843
-13.1115,0.8306271663093843
-13.111,0.8306271663093843
-13.1105,0.8314121189835542
-13.11,0.8290572609610445
-13.1095,0.8235625922418554
-13.109,0.6092705121934774
-13.1085,0.5943564113842495
-13.108,0.5935714587100797
-13.1075,0.5959263167325893
-13.107,0.5959263167325893
-13.1065,0.5959263167325893
-13.106,0.5967112694067592
-13.1055,0.6186899442835159
-13.105,0.8541757465344807
-13.1045,0.8628102259503494
-13.104,0.8643801312986892
-13.1035,0.8651650839728591
-13.103,0.8628102259503494
-13.1025,0.8588854625795
-13.102,0.6006360327776086
-13.1015,0.5927865060359098
-13.101,0.5935714587100797
-13.1005,0.5943564113842495
-13.1,0.5943564113842495
-13.0995,0.5959263167325893
-13.099,0.5959263167325893
-13.0985,0.5967112694067592
-13.098,0.5974962220809291
-13.0975,0.5974962220809291
-13.097,0.598281174755099
-13.0965,0.5990661274292689
-13.096,0.7277983659931296
-13.0955,0.8314121189835542
-13.095,0.8298422136352144
-13.0945,0.8298422136352144
-13.094,0.8306271663093843
-13.0935,0.8306271663093843
-13.093,0.8259174502643649
-13.0925,0.6869808269362957
-13.092,0.5935714587100797
-13.0915,0.5951413640584194
-13.091,0.5943564113842495
-13.0905,0.5959263167325893
-13.09,0.5959263167325893
-13.0895,0.5974962220809291
-13.089,0.5974962220809291
-13.0885,0.7811751478366816
-13.088,0.8588854625795
-13.0875,0.8635951786245193
-13.087,0.8628102259503494
-13.0865,0.8628102259503494
-13.086,0.8604553679278398
-13.0855,0.6861958742621258
-13.085,0.5935714587100797
-13.0845,0.5935714587100797
-13.084,0.5935714587100797
-13.0835,0.5943564113842495
-13.083,0.5951413640584194
-13.0825,0.5959263167325893
-13.082,0.5967112694067592
-13.0815,0.5967112694067592
-13.081,0.5974962220809291
-13.0805,0.598281174755099
-13.08,0.5990661274292689
-13.0795,0.6547977672953306
-13.079,0.8314121189835542
-13.0785,0.8290572609610445
-13.078,0.8306271663093843
-13.0775,0.8306271663093843
-13.077,0.8306271663093843
-13.0765,0.8267024029385348
-13.076,0.7623362836566044
-13.0755,0.5935714587100797
-13.075,0.5943564113842495
-13.0745,0.5943564113842495
-13.074,0.5959263167325893
-13.0735,0.5959263167325893
-13.073,0.5967112694067592
-13.0725,0.5974962220809291
-13.072,0.6964002590263343
-13.0715,0.8557456518828205
-13.071,0.8628102259503494
-13.0705,0.8635951786245193
-13.07,0.8620252732761795
-13.0695,0.8620252732761795
-13.069,0.7733256210949828
-13.0685,0.5927865060359098
-13.068,0.5927865060359098
-13.0675,0.5935714587100797
-13.067,0.5943564113842495
-13.0665,0.5951413640584194
-13.066,0.5951413640584194
-13.0655,0.5959263167325893
-13.065,0.5967112694067592
-13.0645,0.5974962220809291
-13.064,0.5974962220809291
-13.0635,0.598281174755099
-13.063,0.5990661274292689
-13.0625,0.8086484914326275
-13.062,0.8298422136352144
-13.0615,0.8306271663093843
-13.061,0.8306271663093843
-13.0605,0.8306271663093843
-13.06,0.8274873556127047
-13.0595,0.8227776395676855
-13.059,0.6108404175418171
-13.0585,0.5935714587100797
-13.058,0.5943564113842495
-13.0575,0.5943564113842495
-13.057,0.5967112694067592
-13.0565,0.5974962220809291
-13.056,0.5967112694067592
-13.0555,0.611625370215987
-13.055,0.8565306045569904
-13.0545,0.8604553679278398
-13.054,0.8628102259503494
-13.0535,0.8635951786245193
-13.053,0.8604553679278398
-13.0525,0.8557456518828205
-13.052,0.5998510801034388
-13.0515,0.5935714587100797
-13.051,0.5935714587100797
-13.0505,0.5943564113842495
-13.05,0.5943564113842495
-13.0495,0.5959263167325893
-13.049,0.5959263167325893
-13.0485,0.5959263167325893
-13.048,0.5967112694067592
-13.0475,0.5974962220809291
-13.047,0.5990661274292689
-13.0465,0.5990661274292689
-13.046,0.731723129363979
-13.0455,0.8298422136352144
-13.045,0.8298422136352144
-13.0445,0.8298422136352144
-13.044,0.8306271663093843
-13.0435,0.8290572609610445
-13.043,0.825132497590195
-13.0425,0.6846259689137861
-13.042,0.5935714587100797
-13.0415,0.5951413640584194
-13.041,0.5959263167325893
-13.0405,0.5951413640584194
-13.04,0.5967112694067592
-13.0395,0.5967112694067592
-13.039,0.598281174755099
-13.0385,0.7835300058591913
-13.038,0.8581005099053302
-13.0375,0.8620252732761795
-13.037,0.8628102259503494
-13.0365,0.8604553679278398
-13.036,0.8604553679278398
-13.0355,0.6814861582171066
-13.035,0.5935714587100797
-13.0345,0.5935714587100797
-13.034,0.5943564113842495
-13.0335,0.5943564113842495
-13.033,0.5959263167325893
-13.0325,0.5959263167325893
-13.032,0.5967112694067592
-13.0315,0.5967112694067592
-13.031,0.5974962220809291
-13.0305,0.598281174755099
-13.03,0.5990661274292689
-13.0295,0.6563676726436702
-13.029,0.8306271663093843
-13.0285,0.8290572609610445
-13.028,0.8290572609610445
-13.0275,0.8306271663093843
-13.027,0.8314121189835542
-13.0265,0.8267024029385348
-13.026,0.7584115202857551
-13.0255,0.5951413640584194
-13.025,0.5927865060359098
-13.0245,0.5951413640584194
-13.024,0.5959263167325893
-13.0235,0.5959263167325893
-13.023,0.5967112694067592
-13.0225,0.5974962220809291
-13.022,0.7018949277455235
-13.0215,0.8565306045569904
-13.021,0.8628102259503494
-13.0205,0.8643801312986892
-13.02,0.8620252732761795
-13.0195,0.8596704152536699
-13.019,0.7701858103983032
-13.0185,0.5912166006875701
-13.018,0.5927865060359098
-13.0175,0.5943564113842495
-13.017,0.5943564113842495
-13.0165,0.5951413640584194
-13.016,0.5951413640584194
-13.0155,0.5967112694067592
-13.015,0.5967112694067592
-13.0145,0.598281174755099
-13.014,0.5974962220809291
-13.0135,0.5990661274292689
-13.013,0.5990661274292689
-13.0125,0.8094334441067974
-13.012,0.8298422136352144
-13.0115,0.8298422136352144
-13.011,0.8306271663093843
-13.0105,0.8306271663093843
-13.01,0.8290572609610445
-13.0095,0.8235625922418554
-13.009,0.6061307014967978
-13.0085,0.5935714587100797
-13.008,0.5943564113842495
-13.0075,0.5959263167325893
-13.007,0.5959263167325893
-13.0065,0.5967112694067592
-13.006,0.5974962220809291
-13.0055,0.6179049916093461
-13.005,0.8533907938603109
-13.0045,0.8604553679278398
-13.004,0.8635951786245193
-13.0035,0.8620252732761795
-13.003,0.8628102259503494
-13.0025,0.8549606992086506
-13.002,0.598281174755099
-13.0015,0.5935714587100797
-13.001,0.5935714587100797
-13.0005,0.5943564113842495
-13,0.5951413640584194
-12.9995,0.5959263167325893
-12.999,0.5967112694067592
-12.9985,0.5967112694067592
-12.998,0.5974962220809291
-12.9975,0.598281174755099
-12.997,0.5990661274292689
-12.9965,0.5990661274292689
-12.996,0.7348629400606586
-12.9955,0.8314121189835542
-12.995,0.8298422136352144
-12.9945,0.8298422136352144
-12.994,0.8306271663093843
-12.9935,0.8298422136352144
-12.993,0.825132497590195
-12.9925,0.6830560635654463
-12.992,0.5935714587100797
-12.9915,0.5943564113842495
-12.991,0.5951413640584194
-12.9905,0.5959263167325893
-12.99,0.5959263167325893
-12.9895,0.5974962220809291
-12.989,0.598281174755099
-12.9885,0.7905945799267202
-12.988,0.8573155572311603
-12.9875,0.8643801312986892
-12.987,0.8635951786245193
-12.9865,0.8612403206020096
-12.986,0.8596704152536699
-12.9855,0.678346347520427
-12.985,0.5927865060359098
-12.9845,0.5943564113842495
-12.984,0.5943564113842495
-12.9835,0.5951413640584194
-12.983,0.5959263167325893
-12.9825,0.5959263167325893
-12.982,0.5967112694067592
-12.9815,0.5974962220809291
-12.981,0.598281174755099
-12.9805,0.598281174755099
-12.98,0.5990661274292689
-12.9795,0.65793757799201
-12.979,0.8306271663093843
-12.9785,0.8282723082868746
-12.978,0.8298422136352144
-12.9775,0.8298422136352144
-12.977,0.8306271663093843
-12.9765,0.825132497590195
-12.976,0.759196472959925
-12.9755,0.5943564113842495
-12.975,0.5943564113842495
-12.9745,0.5951413640584194
-12.974,0.5959263167325893
-12.9735,0.5959263167325893
-12.973,0.5967112694067592
-12.9725,0.598281174755099
-12.972,0.7034648330938632
-12.9715,0.8565306045569904
-12.971,0.8628102259503494
-12.9705,0.8635951786245193
-12.97,0.8628102259503494
-12.9695,0.8612403206020096
-12.969,0.7694008577241334
-12.9685,0.5912166006875701
-12.968,0.5935714587100797
-12.9675,0.5935714587100797
-12.967,0.5943564113842495
-12.9665,0.5951413640584194
-12.966,0.5959263167325893
-12.9655,0.5967112694067592
-12.965,0.5967112694067592
-12.9645,0.5974962220809291
-12.964,0.598281174755099
-12.9635,0.598281174755099
-12.963,0.5990661274292689
-12.9625,0.8133582074776469
-12.962,0.8298422136352144
-12.9615,0.8290572609610445
-12.961,0.8290572609610445
-12.9605,0.8298422136352144
-12.96,0.8274873556127047
-12.9595,0.8227776395676855
-12.959,0.6053457488226279
-12.9585,0.5943564113842495
-12.958,0.5951413640584194
-12.9575,0.5951413640584194
-12.957,0.5959263167325893
-12.9565,0.5967112694067592
-12.956,0.5967112694067592
-12.9555,0.6202598496318557
-12.955,0.8549606992086506
-12.9545,0.8612403206020096
-12.954,0.8635951786245193
-12.9535,0.8643801312986892
-12.953,0.8628102259503494
-12.9525,0.852605841186141
-12.952,0.5959263167325893
-12.9515,0.5927865060359098
-12.951,0.5927865060359098
-12.9505,0.5943564113842495
-12.95,0.5943564113842495
-12.9495,0.5951413640584194
-12.949,0.5967112694067592
-12.9485,0.5959263167325893
-12.948,0.5974962220809291
-12.9475,0.598281174755099
-12.947,0.5990661274292689
-12.9465,0.5990661274292689
-12.946,0.738787703431508
-12.9455,0.8298422136352144
-12.945,0.8298422136352144
-12.9445,0.8298422136352144
-12.944,0.8314121189835542
-12.9435,0.8298422136352144
-12.943,0.825132497590195
-12.9425,0.6807012055429367
-12.942,0.5951413640584194
-12.9415,0.5943564113842495
-12.941,0.5951413640584194
-12.9405,0.5967112694067592
-12.94,0.5959263167325893
-12.9395,0.5974962220809291
-12.939,0.5974962220809291
-12.9385,0.79216448527506
-12.938,0.8596704152536699
-12.9375,0.8635951786245193
-12.937,0.8628102259503494
-12.9365,0.8612403206020096
-12.936,0.8612403206020096
-12.9355,0.6775613948462571
-12.935,0.5927865060359098
-12.9345,0.5935714587100797
-12.934,0.5943564113842495
-12.9335,0.5943564113842495
-12.933,0.5951413640584194
-12.9325,0.5959263167325893
-12.932,0.5967112694067592
-12.9315,0.5974962220809291
-12.931,0.5974962220809291
-12.9305,0.598281174755099
-12.93,0.5990661274292689
-12.9295,0.6634322467111993
-12.929,0.8298422136352144
-12.9285,0.8306271663093843
-12.928,0.8306271663093843
-12.9275,0.8306271663093843
-12.927,0.8314121189835542
-12.9265,0.8267024029385348
-12.926,0.7560566622632454
-12.9255,0.5943564113842495
-12.925,0.5943564113842495
-12.9245,0.5951413640584194
-12.924,0.5959263167325893
-12.9235,0.5967112694067592
-12.923,0.5967112694067592
-12.9225,0.5974962220809291
-12.922,0.7042497857680331
-12.9215,0.8565306045569904
-12.921,0.8612403206020096
-12.9205,0.8635951786245193
-12.92,0.8612403206020096
-12.9195,0.8604553679278398
-12.919,0.7639061890049442
-12.9185,0.5935714587100797
-12.918,0.5935714587100797
-12.9175,0.5943564113842495
-12.917,0.5951413640584194
-12.9165,0.5951413640584194
-12.916,0.5959263167325893
-12.9155,0.5959263167325893
-12.915,0.5974962220809291
-12.9145,0.5974962220809291
-12.914,0.5974962220809291
-12.9135,0.5990661274292689
-12.913,0.5998510801034388
-12.9125,0.8164980181743264
-12.912,0.8298422136352144
-12.9115,0.8282723082868746
-12.911,0.8298422136352144
-12.9105,0.8306271663093843
-12.91,0.8274873556127047
-12.9095,0.8219926868935156
-12.909,0.6061307014967978
-12.9085,0.5935714587100797
-12.908,0.5951413640584194
-12.9075,0.5959263167325893
-12.907,0.5967112694067592
-12.9065,0.5967112694067592
-12.906,0.5974962220809291
-12.9055,0.6281093763735546
-12.905,0.8565306045569904
-12.9045,0.8588854625795
-12.904,0.8635951786245193
-12.9035,0.8620252732761795
-12.903,0.8604553679278398
-12.9025,0.8510359358378012
-12.902,0.5967112694067592
-12.9015,0.5935714587100797
-12.901,0.5943564113842495
-12.9005,0.5943564113842495
-12.9,0.5959263167325893
-12.8995,0.5959263167325893
-12.899,0.5967112694067592
-12.8985,0.5967112694067592
-12.898,0.5974962220809291
-12.8975,0.598281174755099
-12.897,0.5990661274292689
-12.8965,0.5990661274292689
-12.896,0.7395726561056779
-12.8955,0.8290572609610445
-12.895,0.8290572609610445
-12.8945,0.8290572609610445
-12.894,0.8306271663093843
-12.8935,0.8306271663093843
-12.893,0.8243475449160251
-12.8925,0.6791313001945969
-12.892,0.5943564113842495
-12.8915,0.5943564113842495
-12.891,0.5959263167325893
-12.8905,0.5959263167325893
-12.89,0.5974962220809291
-12.8895,0.5974962220809291
-12.889,0.598281174755099
-12.8885,0.7937343906233998
-12.888,0.8573155572311603
-12.8875,0.8643801312986892
-12.887,0.8620252732761795
-12.8865,0.8620252732761795
-12.886,0.8612403206020096
-12.8855,0.678346347520427
-12.885,0.5927865060359098
-12.8845,0.5935714587100797
-12.884,0.5943564113842495
-12.8835,0.5951413640584194
-12.883,0.5959263167325893
-12.8825,0.5967112694067592
-12.882,0.5974962220809291
-12.8815,0.5974962220809291
-12.881,0.598281174755099
-12.8805,0.598281174755099
-12.88,0.5990661274292689
-12.8795,0.6665720574078787
-12.879,0.8290572609610445
-12.8785,0.8298422136352144
-12.878,0.8306271663093843
-12.8775,0.8321970716577241
-12.877,0.8314121189835542
-12.8765,0.8282723082868746
-12.876,0.7544867569149056
-12.8755,0.5951413640584194
-12.875,0.5951413640584194
-12.8745,0.5951413640584194
-12.874,0.5967112694067592
-12.8735,0.5967112694067592
-12.873,0.5974962220809291
-12.8725,0.598281174755099
-12.872,0.7160240758805814
-12.8715,0.8549606992086506
-12.871,0.8620252732761795
-12.8705,0.8635951786245193
-12.87,0.8620252732761795
-12.8695,0.8620252732761795
-12.869,0.765476094353284
-12.8685,0.5912166006875701
-12.868,0.5943564113842495
-12.8675,0.5927865060359098
-12.867,0.5951413640584194
-12.8665,0.5959263167325893
-12.866,0.5951413640584194
-12.8655,0.5959263167325893
-12.865,0.5967112694067592
-12.8645,0.5967112694067592
-12.864,0.598281174755099
-12.8635,0.5990661274292689
-12.863,0.5998510801034388
-12.8625,0.8157130655001565
-12.862,0.8290572609610445
-12.8615,0.8306271663093843
-12.861,0.8306271663093843
-12.8605,0.8306271663093843
-12.86,0.8282723082868746
-12.8595,0.8227776395676855
-12.859,0.6037758434742881
-12.8585,0.5943564113842495
-12.858,0.5951413640584194
-12.8575,0.5959263167325893
-12.857,0.5959263167325893
-12.8565,0.5974962220809291
-12.856,0.5974962220809291
-12.8555,0.6257545183510449
-12.855,0.8549606992086506
-12.8545,0.8604553679278398
-12.854,0.8628102259503494
-12.8535,0.8612403206020096
-12.853,0.8620252732761795
-12.8525,0.8502509831636313
-12.852,0.5951413640584194
-12.8515,0.5935714587100797
-12.851,0.5943564113842495
-12.8505,0.5951413640584194
-12.85,0.5951413640584194
-12.8495,0.5967112694067592
-12.849,0.5967112694067592
-12.8485,0.5967112694067592
-12.848,0.5974962220809291
-12.8475,0.598281174755099
-12.847,0.5990661274292689
-12.8465,0.5998510801034388
-12.846,0.7427124668023574
-12.8455,0.8290572609610445
-12.845,0.8298422136352144
-12.8445,0.8290572609610445
-12.844,0.8306271663093843
-12.8435,0.8298422136352144
-12.843,0.825132497590195
-12.8425,0.6736366314754078
-12.842,0.5943564113842495
-12.8415,0.5943564113842495
-12.841,0.5951413640584194
-12.8405,0.5951413640584194
-12.84,0.5967112694067592
-12.8395,0.5974962220809291
-12.839,0.598281174755099
-12.8385,0.7960892486459095
-12.838,0.8596704152536699
-12.8375,0.8651650839728591
-12.837,0.8651650839728591
-12.8365,0.8628102259503494
-12.836,0.8612403206020096
-12.8355,0.6775613948462571
-12.835,0.5920015533617399
-12.8345,0.5935714587100797
-12.834,0.5943564113842495
-12.8335,0.5951413640584194
-12.833,0.5959263167325893
-12.8325,0.5967112694067592
-12.832,0.5967112694067592
-12.8315,0.5974962220809291
-12.831,0.598281174755099
-12.8305,0.598281174755099
-12.83,0.5998510801034388
-12.8295,0.6673570100820486
-12.829,0.8306271663093843
-12.8285,0.8298422136352144
-12.828,0.8306271663093843
-12.8275,0.8314121189835542
-12.827,0.8314121189835542
-12.8265,0.8259174502643649
-12.826,0.7560566622632454
-12.8255,0.5959263167325893
-12.825,0.5943564113842495
